##TITLE=No Description
##DATA TYPE=INFRARED SPECTRUM
##XUNITS=1/CM
##YUNITS=Abs
399.264912  	0.170828 
401.193728  	0.161882 
403.122544  	0.159195 
405.051360  	0.157409 
406.980176  	0.158741 
408.908992  	0.160254 
410.837808  	0.161924 
412.766624  	0.158136 
414.695440  	0.153611 
416.624256  	0.153858 
418.553072  	0.156366 
420.481888  	0.149999 
422.410704  	0.154178 
424.339520  	0.156402 
426.268336  	0.154599 
428.197152  	0.151675 
430.125968  	0.154510 
432.054784  	0.152475 
433.983600  	0.148621 
435.912416  	0.144156 
437.841232  	0.143755 
439.770048  	0.143376 
441.698864  	0.143283 
443.627680  	0.143429 
445.556496  	0.141828 
447.485312  	0.138893 
449.414128  	0.138381 
451.342944  	0.137854 
453.271760  	0.139973 
455.200576  	0.142564 
457.129392  	0.142919 
459.058208  	0.142260 
460.987024  	0.141144 
462.915840  	0.139906 
464.844656  	0.143251 
466.773472  	0.142835 
468.702288  	0.140931 
470.631104  	0.140619 
472.559920  	0.143445 
474.488736  	0.141472 
476.417552  	0.139313 
478.346368  	0.139312 
480.275184  	0.139687 
482.204000  	0.138339 
484.132816  	0.139043 
486.061632  	0.139491 
487.990448  	0.140548 
489.919264  	0.141430 
491.848080  	0.141857 
493.776896  	0.140481 
495.705712  	0.141399 
497.634528  	0.140843 
499.563344  	0.140719 
501.492160  	0.140504 
503.420976  	0.141643 
505.349792  	0.141166 
507.278608  	0.142982 
509.207424  	0.143785 
511.136240  	0.143606 
513.065056  	0.142256 
514.993872  	0.142500 
516.922688  	0.142331 
518.851504  	0.144267 
520.780320  	0.144854 
522.709136  	0.144283 
524.637952  	0.143237 
526.566768  	0.144367 
528.495584  	0.144899 
530.424400  	0.143846 
532.353216  	0.142732 
534.282032  	0.143517 
536.210848  	0.144508 
538.139664  	0.144260 
540.068480  	0.142760 
541.997296  	0.141449 
543.926112  	0.140899 
545.854928  	0.141877 
547.783744  	0.142046 
549.712560  	0.142201 
551.641376  	0.141469 
553.570192  	0.140778 
555.499008  	0.140280 
557.427824  	0.141256 
559.356640  	0.140822 
561.285456  	0.140266 
563.214272  	0.139901 
565.143088  	0.139241 
567.071904  	0.137864 
569.000720  	0.137609 
570.929536  	0.137202 
572.858352  	0.137010 
574.787168  	0.136742 
576.715984  	0.136616 
578.644800  	0.135803 
580.573616  	0.135179 
582.502432  	0.134707 
584.431248  	0.135301 
586.360064  	0.134653 
588.288880  	0.133822 
590.217696  	0.133767 
592.146512  	0.133785 
594.075328  	0.133116 
596.004144  	0.132987 
597.932960  	0.132637 
599.861776  	0.132302 
601.790592  	0.131308 
603.719408  	0.130945 
605.648224  	0.130955 
607.577040  	0.130976 
609.505856  	0.130553 
611.434672  	0.130236 
613.363488  	0.129845 
615.292304  	0.129802 
617.221120  	0.129319 
619.149936  	0.128928 
621.078752  	0.128233 
623.007568  	0.128372 
624.936384  	0.128282 
626.865200  	0.127954 
628.794016  	0.127330 
630.722832  	0.126910 
632.651648  	0.126945 
634.580464  	0.126621 
636.509280  	0.126065 
638.438096  	0.126088 
640.366912  	0.126300 
642.295728  	0.126349 
644.224544  	0.125296 
646.153360  	0.124406 
648.082176  	0.122947 
650.010992  	0.122125 
651.939808  	0.121581 
653.868624  	0.121239 
655.797440  	0.120311 
657.726256  	0.120110 
659.655072  	0.119481 
661.583888  	0.118246 
663.512704  	0.117188 
665.441520  	0.116182 
667.370336  	0.114544 
669.299152  	0.115281 
671.227968  	0.114310 
673.156784  	0.113079 
675.085600  	0.113050 
677.014416  	0.112737 
678.943232  	0.112045 
680.872048  	0.111452 
682.800864  	0.111021 
684.729680  	0.111144 
686.658496  	0.110378 
688.587312  	0.109840 
690.516128  	0.109536 
692.444944  	0.109266 
694.373760  	0.108016 
696.302576  	0.107712 
698.231392  	0.107168 
700.160208  	0.106222 
702.089024  	0.105141 
704.017840  	0.104353 
705.946656  	0.103575 
707.875472  	0.102846 
709.804288  	0.102119 
711.733104  	0.101673 
713.661920  	0.101115 
715.590736  	0.099962 
717.519552  	0.099028 
719.448368  	0.098813 
721.377184  	0.098454 
723.306000  	0.098279 
725.234816  	0.098341 
727.163632  	0.098025 
729.092448  	0.097399 
731.021264  	0.096972 
732.950080  	0.096315 
734.878896  	0.095726 
736.807712  	0.094816 
738.736528  	0.094051 
740.665344  	0.093306 
742.594160  	0.093084 
744.522976  	0.092576 
746.451792  	0.091832 
748.380608  	0.091151 
750.309424  	0.090536 
752.238240  	0.089779 
754.167056  	0.089483 
756.095872  	0.089177 
758.024688  	0.088626 
759.953504  	0.087807 
761.882320  	0.087172 
763.811136  	0.086543 
765.739952  	0.085876 
767.668768  	0.085395 
769.597584  	0.084844 
771.526400  	0.084508 
773.455216  	0.084115 
775.384032  	0.083701 
777.312848  	0.083908 
779.241664  	0.083952 
781.170480  	0.083706 
783.099296  	0.083104 
785.028112  	0.082206 
786.956928  	0.080891 
788.885744  	0.079510 
790.814560  	0.078411 
792.743376  	0.077693 
794.672192  	0.076829 
796.601008  	0.076156 
798.529824  	0.075607 
800.458640  	0.074744 
802.387456  	0.073577 
804.316272  	0.072489 
806.245088  	0.071663 
808.173904  	0.070794 
810.102720  	0.070172 
812.031536  	0.069431 
813.960352  	0.068641 
815.889168  	0.068161 
817.817984  	0.067351 
819.746800  	0.066628 
821.675616  	0.065854 
823.604432  	0.065375 
825.533248  	0.064885 
827.462064  	0.063966 
829.390880  	0.063092 
831.319696  	0.062441 
833.248512  	0.061852 
835.177328  	0.061502 
837.106144  	0.060690 
839.034960  	0.059579 
840.963776  	0.058838 
842.892592  	0.058308 
844.821408  	0.057489 
846.750224  	0.056523 
848.679040  	0.055656 
850.607856  	0.055019 
852.536672  	0.054319 
854.465488  	0.053616 
856.394304  	0.052669 
858.323120  	0.051908 
860.251936  	0.050928 
862.180752  	0.049985 
864.109568  	0.049126 
866.038384  	0.048579 
867.967200  	0.048002 
869.896016  	0.047507 
871.824832  	0.047029 
873.753648  	0.046878 
875.682464  	0.046551 
877.611280  	0.045600 
879.540096  	0.044727 
881.468912  	0.044772 
883.397728  	0.044650 
885.326544  	0.044408 
887.255360  	0.043923 
889.184176  	0.043221 
891.112992  	0.042592 
893.041808  	0.042494 
894.970624  	0.042139 
896.899440  	0.041454 
898.828256  	0.040986 
900.757072  	0.040645 
902.685888  	0.040439 
904.614704  	0.040255 
906.543520  	0.040211 
908.472336  	0.040297 
910.401152  	0.040471 
912.329968  	0.040745 
914.258784  	0.040901 
916.187600  	0.041106 
918.116416  	0.041136 
920.045232  	0.040936 
921.974048  	0.040400 
923.902864  	0.040001 
925.831680  	0.039665 
927.760496  	0.039291 
929.689312  	0.039016 
931.618128  	0.038713 
933.546944  	0.038344 
935.475760  	0.037979 
937.404576  	0.037796 
939.333392  	0.037663 
941.262208  	0.037410 
943.191024  	0.037248 
945.119840  	0.037176 
947.048656  	0.037067 
948.977472  	0.037057 
950.906288  	0.037333 
952.835104  	0.037647 
954.763920  	0.037932 
956.692736  	0.037926 
958.621552  	0.037972 
960.550368  	0.037795 
962.479184  	0.037363 
964.408000  	0.036633 
966.336816  	0.035836 
968.265632  	0.034705 
970.194448  	0.033345 
972.123264  	0.032043 
974.052080  	0.030671 
975.980896  	0.029116 
977.909712  	0.027475 
979.838528  	0.026237 
981.767344  	0.025171 
983.696160  	0.024279 
985.624976  	0.023434 
987.553792  	0.022681 
989.482608  	0.022292 
991.411424  	0.022260 
993.340240  	0.022207 
995.269056  	0.022281 
997.197872  	0.022440 
999.126688  	0.022557 
1001.055504  	0.022695 
1002.984320  	0.022693 
1004.913136  	0.022598 
1006.841952  	0.022671 
1008.770768  	0.022691 
1010.699584  	0.022563 
1012.628400  	0.022362 
1014.557216  	0.022101 
1016.486032  	0.021894 
1018.414848  	0.021645 
1020.343664  	0.021229 
1022.272480  	0.021005 
1024.201296  	0.020476 
1026.130112  	0.018703 
1028.058928  	0.017662 
1029.987744  	0.018543 
1031.916560  	0.018399 
1033.845376  	0.017408 
1035.774192  	0.015833 
1037.703008  	0.014457 
1039.631824  	0.014269 
1041.560640  	0.014204 
1043.489456  	0.014103 
1045.418272  	0.014145 
1047.347088  	0.014603 
1049.275904  	0.015506 
1051.204720  	0.016496 
1053.133536  	0.017564 
1055.062352  	0.018672 
1056.991168  	0.019422 
1058.919984  	0.020814 
1060.848800  	0.022482 
1062.777616  	0.022350 
1064.706432  	0.020382 
1066.635248  	0.019283 
1068.564064  	0.020718 
1070.492880  	0.021171 
1072.421696  	0.020373 
1074.350512  	0.019469 
1076.279328  	0.018651 
1078.208144  	0.018498 
1080.136960  	0.019377 
1082.065776  	0.020338 
1083.994592  	0.021168 
1085.923408  	0.022057 
1087.852224  	0.022664 
1089.781040  	0.023226 
1091.709856  	0.024024 
1093.638672  	0.024322 
1095.567488  	0.023772 
1097.496304  	0.022935 
1099.425120  	0.022028 
1101.353936  	0.021063 
1103.282752  	0.020254 
1105.211568  	0.019508 
1107.140384  	0.018934 
1109.069200  	0.018316 
1110.998016  	0.017586 
1112.926832  	0.016995 
1114.855648  	0.016437 
1116.784464  	0.015623 
1118.713280  	0.014780 
1120.642096  	0.013958 
1122.570912  	0.013148 
1124.499728  	0.012602 
1126.428544  	0.012041 
1128.357360  	0.011465 
1130.286176  	0.010851 
1132.214992  	0.010276 
1134.143808  	0.009686 
1136.072624  	0.009250 
1138.001440  	0.009035 
1139.930256  	0.008561 
1141.859072  	0.007775 
1143.787888  	0.007312 
1145.716704  	0.006974 
1147.645520  	0.006657 
1149.574336  	0.006373 
1151.503152  	0.006021 
1153.431968  	0.005986 
1155.360784  	0.005932 
1157.289600  	0.005821 
1159.218416  	0.005731 
1161.147232  	0.005684 
1163.076048  	0.005671 
1165.004864  	0.005851 
1166.933680  	0.005895 
1168.862496  	0.005916 
1170.791312  	0.006132 
1172.720128  	0.006298 
1174.648944  	0.006453 
1176.577760  	0.006647 
1178.506576  	0.007031 
1180.435392  	0.007222 
1182.364208  	0.007447 
1184.293024  	0.007800 
1186.221840  	0.008026 
1188.150656  	0.008183 
1190.079472  	0.008361 
1192.008288  	0.008723 
1193.937104  	0.009075 
1195.865920  	0.009527 
1197.794736  	0.010012 
1199.723552  	0.010670 
1201.652368  	0.011351 
1203.581184  	0.012140 
1205.510000  	0.012798 
1207.438816  	0.013332 
1209.367632  	0.014015 
1211.296448  	0.014395 
1213.225264  	0.014697 
1215.154080  	0.015017 
1217.082896  	0.015253 
1219.011712  	0.015467 
1220.940528  	0.015653 
1222.869344  	0.015695 
1224.798160  	0.015622 
1226.726976  	0.015541 
1228.655792  	0.015546 
1230.584608  	0.015608 
1232.513424  	0.015746 
1234.442240  	0.015988 
1236.371056  	0.016067 
1238.299872  	0.015896 
1240.228688  	0.014898 
1242.157504  	0.014054 
1244.086320  	0.013954 
1246.015136  	0.013512 
1247.943952  	0.012614 
1249.872768  	0.011502 
1251.801584  	0.010887 
1253.730400  	0.010289 
1255.659216  	0.009674 
1257.588032  	0.009101 
1259.516848  	0.008631 
1261.445664  	0.008307 
1263.374480  	0.007980 
1265.303296  	0.007687 
1267.232112  	0.007542 
1269.160928  	0.007424 
1271.089744  	0.007329 
1273.018560  	0.007289 
1274.947376  	0.007322 
1276.876192  	0.007332 
1278.805008  	0.007308 
1280.733824  	0.007111 
1282.662640  	0.006756 
1284.591456  	0.006552 
1286.520272  	0.006326 
1288.449088  	0.006011 
1290.377904  	0.005849 
1292.306720  	0.005569 
1294.235536  	0.005183 
1296.164352  	0.004726 
1298.093168  	0.004254 
1300.021984  	0.003874 
1301.950800  	0.003553 
1303.879616  	0.003139 
1305.808432  	0.002849 
1307.737248  	0.002650 
1309.666064  	0.002482 
1311.594880  	0.002362 
1313.523696  	0.002321 
1315.452512  	0.002292 
1317.381328  	0.002319 
1319.310144  	0.002218 
1321.238960  	0.002082 
1323.167776  	0.002189 
1325.096592  	0.002228 
1327.025408  	0.002273 
1328.954224  	0.002286 
1330.883040  	0.002170 
1332.811856  	0.002029 
1334.740672  	0.001836 
1336.669488  	0.001837 
1338.598304  	0.001938 
1340.527120  	0.001773 
1342.455936  	0.001523 
1344.384752  	0.001443 
1346.313568  	0.001413 
1348.242384  	0.001537 
1350.171200  	0.001675 
1352.100016  	0.001818 
1354.028832  	0.001921 
1355.957648  	0.002154 
1357.886464  	0.002332 
1359.815280  	0.002357 
1361.744096  	0.002466 
1363.672912  	0.002439 
1365.601728  	0.002233 
1367.530544  	0.002013 
1369.459360  	0.001646 
1371.388176  	0.001238 
1373.316992  	0.000887 
1375.245808  	0.000203 
1377.174624  	-0.000518 
1379.103440  	-0.001061 
1381.032256  	-0.001558 
1382.961072  	-0.001836 
1384.889888  	-0.001745 
1386.818704  	-0.001367 
1388.747520  	-0.001311 
1390.676336  	-0.001943 
1392.605152  	-0.003492 
1394.533968  	-0.003872 
1396.462784  	-0.002123 
1398.391600  	-0.001560 
1400.320416  	-0.001946 
1402.249232  	-0.002385 
1404.178048  	-0.002419 
1406.106864  	-0.002424 
1408.035680  	-0.002255 
1409.964496  	-0.001802 
1411.893312  	-0.001059 
1413.822128  	-0.000303 
1415.750944  	0.000483 
1417.679760  	0.001171 
1419.608576  	0.001687 
1421.537392  	0.001730 
1423.466208  	0.001791 
1425.395024  	0.001744 
1427.323840  	0.001630 
1429.252656  	0.001628 
1431.181472  	0.001595 
1433.110288  	0.001597 
1435.039104  	0.001717 
1436.967920  	0.001847 
1438.896736  	0.001727 
1440.825552  	0.001664 
1442.754368  	0.001604 
1444.683184  	0.001514 
1446.612000  	0.001507 
1448.540816  	0.001329 
1450.469632  	0.001274 
1452.398448  	0.001507 
1454.327264  	0.001734 
1456.256080  	0.002206 
1458.184896  	0.002404 
1460.113712  	0.002343 
1462.042528  	0.002349 
1463.971344  	0.002496 
1465.900160  	0.002796 
1467.828976  	0.003145 
1469.757792  	0.003536 
1471.686608  	0.004013 
1473.615424  	0.004793 
1475.544240  	0.005138 
1477.473056  	0.005349 
1479.401872  	0.005419 
1481.330688  	0.005566 
1483.259504  	0.005610 
1485.188320  	0.005621 
1487.117136  	0.005576 
1489.045952  	0.005671 
1490.974768  	0.005179 
1492.903584  	0.004501 
1494.832400  	0.004117 
1496.761216  	0.003785 
1498.690032  	0.003307 
1500.618848  	0.003109 
1502.547664  	0.002940 
1504.476480  	0.002536 
1506.405296  	0.002566 
1508.334112  	0.002983 
1510.262928  	0.002708 
1512.191744  	0.002381 
1514.120560  	0.002226 
1516.049376  	0.002235 
1517.978192  	0.002205 
1519.907008  	0.002169 
1521.835824  	0.002331 
1523.764640  	0.002702 
1525.693456  	0.003127 
1527.622272  	0.003441 
1529.551088  	0.003529 
1531.479904  	0.003624 
1533.408720  	0.003722 
1535.337536  	0.003598 
1537.266352  	0.003129 
1539.195168  	0.002450 
1541.123984  	0.002444 
1543.052800  	0.002734 
1544.981616  	0.002588 
1546.910432  	0.002311 
1548.839248  	0.002312 
1550.768064  	0.002289 
1552.696880  	0.002093 
1554.625696  	0.002122 
1556.554512  	0.001913 
1558.483328  	0.001991 
1560.412144  	0.002622 
1562.340960  	0.002961 
1564.269776  	0.003255 
1566.198592  	0.003721 
1568.127408  	0.003950 
1570.056224  	0.004471 
1571.985040  	0.005072 
1573.913856  	0.005218 
1575.842672  	0.005266 
1577.771488  	0.005765 
1579.700304  	0.005841 
1581.629120  	0.005860 
1583.557936  	0.005950 
1585.486752  	0.006151 
1587.415568  	0.006412 
1589.344384  	0.006896 
1591.273200  	0.007435 
1593.202016  	0.008076 
1595.130832  	0.008660 
1597.059648  	0.009203 
1598.988464  	0.009589 
1600.917280  	0.009905 
1602.846096  	0.010105 
1604.774912  	0.010288 
1606.703728  	0.010296 
1608.632544  	0.010132 
1610.561360  	0.009969 
1612.490176  	0.009994 
1614.418992  	0.009662 
1616.347808  	0.009755 
1618.276624  	0.010629 
1620.205440  	0.011030 
1622.134256  	0.011315 
1624.063072  	0.012390 
1625.991888  	0.013171 
1627.920704  	0.014032 
1629.849520  	0.015023 
1631.778336  	0.015624 
1633.707152  	0.015865 
1635.635968  	0.017266 
1637.564784  	0.018830 
1639.493600  	0.019234 
1641.422416  	0.019872 
1643.351232  	0.020066 
1645.280048  	0.020027 
1647.208864  	0.021079 
1649.137680  	0.021120 
1651.066496  	0.020073 
1652.995312  	0.020787 
1654.924128  	0.021960 
1656.852944  	0.021066 
1658.781760  	0.020706 
1660.710576  	0.020359 
1662.639392  	0.020491 
1664.568208  	0.020652 
1666.497024  	0.020064 
1668.425840  	0.019728 
1670.354656  	0.020078 
1672.283472  	0.019889 
1674.212288  	0.019704 
1676.141104  	0.020594 
1678.069920  	0.020507 
1679.998736  	0.020567 
1681.927552  	0.020268 
1683.856368  	0.020517 
1685.785184  	0.021611 
1687.714000  	0.021236 
1689.642816  	0.021145 
1691.571632  	0.020876 
1693.500448  	0.020215 
1695.429264  	0.020093 
1697.358080  	0.020167 
1699.286896  	0.019247 
1701.215712  	0.019640 
1703.144528  	0.018597 
1705.073344  	0.017750 
1707.002160  	0.017037 
1708.930976  	0.016078 
1710.859792  	0.015256 
1712.788608  	0.014305 
1714.717424  	0.013198 
1716.646240  	0.011964 
1718.575056  	0.011044 
1720.503872  	0.010222 
1722.432688  	0.009333 
1724.361504  	0.008421 
1726.290320  	0.007452 
1728.219136  	0.006490 
1730.147952  	0.005749 
1732.076768  	0.005055 
1734.005584  	0.004218 
1735.934400  	0.003272 
1737.863216  	0.002691 
1739.792032  	0.002025 
1741.720848  	0.001682 
1743.649664  	0.001436 
1745.578480  	0.000944 
1747.507296  	0.000608 
1749.436112  	0.000391 
1751.364928  	0.000245 
1753.293744  	-0.000036 
1755.222560  	-0.000299 
1757.151376  	-0.000364 
1759.080192  	-0.000504 
1761.009008  	-0.000507 
1762.937824  	-0.000632 
1764.866640  	-0.000785 
1766.795456  	-0.000706 
1768.724272  	-0.000651 
1770.653088  	-0.001044 
1772.581904  	-0.001363 
1774.510720  	-0.001365 
1776.439536  	-0.001264 
1778.368352  	-0.001192 
1780.297168  	-0.001130 
1782.225984  	-0.001205 
1784.154800  	-0.001168 
1786.083616  	-0.001173 
1788.012432  	-0.001266 
1789.941248  	-0.001322 
1791.870064  	-0.001316 
1793.798880  	-0.001418 
1795.727696  	-0.001259 
1797.656512  	-0.001501 
1799.585328  	-0.001699 
1801.514144  	-0.001529 
1803.442960  	-0.001363 
1805.371776  	-0.001624 
1807.300592  	-0.001587 
1809.229408  	-0.001498 
1811.158224  	-0.001488 
1813.087040  	-0.001575 
1815.015856  	-0.001852 
1816.944672  	-0.001974 
1818.873488  	-0.001719 
1820.802304  	-0.001417 
1822.731120  	-0.001242 
1824.659936  	-0.001121 
1826.588752  	-0.001069 
1828.517568  	-0.001237 
1830.446384  	-0.001550 
1832.375200  	-0.001605 
1834.304016  	-0.001380 
1836.232832  	-0.001496 
1838.161648  	-0.001541 
1840.090464  	-0.001519 
1842.019280  	-0.001453 
1843.948096  	-0.001515 
1845.876912  	-0.001533 
1847.805728  	-0.001445 
1849.734544  	-0.001585 
1851.663360  	-0.001911 
1853.592176  	-0.001628 
1855.520992  	-0.001449 
1857.449808  	-0.001452 
1859.378624  	-0.001539 
1861.307440  	-0.001623 
1863.236256  	-0.001620 
1865.165072  	-0.001518 
1867.093888  	-0.001495 
1869.022704  	-0.001553 
1870.951520  	-0.001718 
1872.880336  	-0.001789 
1874.809152  	-0.001571 
1876.737968  	-0.001323 
1878.666784  	-0.001211 
1880.595600  	-0.001078 
1882.524416  	-0.001328 
1884.453232  	-0.001203 
1886.382048  	-0.001181 
1888.310864  	-0.001318 
1890.239680  	-0.001582 
1892.168496  	-0.001775 
1894.097312  	-0.001713 
1896.026128  	-0.001596 
1897.954944  	-0.001754 
1899.883760  	-0.001779 
1901.812576  	-0.001898 
1903.741392  	-0.001674 
1905.670208  	-0.001396 
1907.599024  	-0.001307 
1909.527840  	-0.001366 
1911.456656  	-0.001509 
1913.385472  	-0.001410 
1915.314288  	-0.001646 
1917.243104  	-0.001515 
1919.171920  	-0.001298 
1921.100736  	-0.001729 
1923.029552  	-0.001899 
1924.958368  	-0.001928 
1926.887184  	-0.001566 
1928.816000  	-0.001410 
1930.744816  	-0.000996 
1932.673632  	-0.000729 
1934.602448  	-0.000764 
1936.531264  	-0.000920 
1938.460080  	-0.001084 
1940.388896  	-0.001679 
1942.317712  	-0.001896 
1944.246528  	-0.001753 
1946.175344  	-0.001631 
1948.104160  	-0.001223 
1950.032976  	-0.000447 
1951.961792  	-0.000774 
1953.890608  	-0.001369 
1955.819424  	-0.001773 
1957.748240  	-0.002178 
1959.677056  	-0.002503 
1961.605872  	-0.002205 
1963.534688  	-0.001569 
1965.463504  	-0.001804 
1967.392320  	-0.002040 
1969.321136  	-0.001910 
1971.249952  	-0.001271 
1973.178768  	-0.001311 
1975.107584  	-0.001372 
1977.036400  	-0.000501 
1978.965216  	0.001283 
1980.894032  	0.000974 
1982.822848  	-0.000160 
1984.751664  	-0.000347 
1986.680480  	-0.000764 
1988.609296  	-0.000672 
1990.538112  	-0.000673 
1992.466928  	-0.001600 
1994.395744  	-0.001927 
1996.324560  	-0.001551 
1998.253376  	-0.001536 
2000.182192  	-0.001049 
2002.111008  	-0.001464 
2004.039824  	-0.001423 
2005.968640  	-0.000266 
2007.897456  	0.000292 
2009.826272  	0.000116 
2011.755088  	-0.000141 
2013.683904  	-0.001374 
2015.612720  	-0.001584 
2017.541536  	-0.000391 
2019.470352  	-0.000680 
2021.399168  	-0.001275 
2023.327984  	-0.000771 
2025.256800  	-0.001679 
2027.185616  	-0.003154 
2029.114432  	-0.002856 
2031.043248  	-0.002403 
2032.972064  	-0.002007 
2034.900880  	-0.001481 
2036.829696  	-0.001450 
2038.758512  	-0.001191 
2040.687328  	-0.001527 
2042.616144  	-0.002087 
2044.544960  	-0.001642 
2046.473776  	-0.000899 
2048.402592  	-0.000831 
2050.331408  	-0.001270 
2052.260224  	-0.002076 
2054.189040  	-0.001109 
2056.117856  	-0.001003 
2058.046672  	-0.001957 
2059.975488  	-0.001792 
2061.904304  	-0.001254 
2063.833120  	-0.001302 
2065.761936  	-0.001617 
2067.690752  	-0.002148 
2069.619568  	-0.002263 
2071.548384  	-0.001780 
2073.477200  	-0.001540 
2075.406016  	-0.001613 
2077.334832  	-0.002266 
2079.263648  	-0.002626 
2081.192464  	-0.002211 
2083.121280  	-0.001782 
2085.050096  	-0.001760 
2086.978912  	-0.001894 
2088.907728  	-0.002050 
2090.836544  	-0.002274 
2092.765360  	-0.002552 
2094.694176  	-0.002306 
2096.622992  	-0.001549 
2098.551808  	-0.001337 
2100.480624  	-0.001718 
2102.409440  	-0.002098 
2104.338256  	-0.001704 
2106.267072  	-0.001311 
2108.195888  	-0.001180 
2110.124704  	-0.001750 
2112.053520  	-0.002038 
2113.982336  	-0.002193 
2115.911152  	-0.002088 
2117.839968  	-0.001952 
2119.768784  	-0.002444 
2121.697600  	-0.002750 
2123.626416  	-0.002476 
2125.555232  	-0.002890 
2127.484048  	-0.002651 
2129.412864  	-0.002610 
2131.341680  	-0.003326 
2133.270496  	-0.003498 
2135.199312  	-0.003260 
2137.128128  	-0.003004 
2139.056944  	-0.002956 
2140.985760  	-0.003532 
2142.914576  	-0.003026 
2144.843392  	-0.003333 
2146.772208  	-0.003517 
2148.701024  	-0.002462 
2150.629840  	-0.002831 
2152.558656  	-0.004591 
2154.487472  	-0.004912 
2156.416288  	-0.003709 
2158.345104  	-0.002829 
2160.273920  	-0.001129 
2162.202736  	-0.000532 
2164.131552  	-0.000302 
2166.060368  	-0.000471 
2167.989184  	-0.001693 
2169.918000  	-0.002801 
2171.846816  	-0.002681 
2173.775632  	-0.001546 
2175.704448  	-0.001672 
2177.633264  	-0.001099 
2179.562080  	-0.000943 
2181.490896  	-0.000287 
2183.419712  	0.000383 
2185.348528  	-0.000364 
2187.277344  	-0.001156 
2189.206160  	-0.001976 
2191.134976  	-0.001408 
2193.063792  	-0.001292 
2194.992608  	-0.001616 
2196.921424  	-0.001721 
2198.850240  	-0.002041 
2200.779056  	-0.001576 
2202.707872  	-0.000602 
2204.636688  	-0.001242 
2206.565504  	-0.002295 
2208.494320  	-0.002608 
2210.423136  	-0.001989 
2212.351952  	-0.001175 
2214.280768  	-0.001150 
2216.209584  	-0.001577 
2218.138400  	-0.002043 
2220.067216  	-0.001855 
2221.996032  	-0.001570 
2223.924848  	-0.002290 
2225.853664  	-0.002394 
2227.782480  	-0.001676 
2229.711296  	-0.001923 
2231.640112  	-0.002156 
2233.568928  	-0.002804 
2235.497744  	-0.003054 
2237.426560  	-0.002458 
2239.355376  	-0.002110 
2241.284192  	-0.002404 
2243.213008  	-0.002085 
2245.141824  	-0.001836 
2247.070640  	-0.002271 
2248.999456  	-0.002392 
2250.928272  	-0.002445 
2252.857088  	-0.002100 
2254.785904  	-0.001682 
2256.714720  	-0.002524 
2258.643536  	-0.002578 
2260.572352  	-0.001957 
2262.501168  	-0.001929 
2264.429984  	-0.001877 
2266.358800  	-0.002027 
2268.287616  	-0.002123 
2270.216432  	-0.002129 
2272.145248  	-0.002290 
2274.074064  	-0.002016 
2276.002880  	-0.001343 
2277.931696  	-0.001226 
2279.860512  	-0.001393 
2281.789328  	-0.000995 
2283.718144  	-0.001063 
2285.646960  	-0.001411 
2287.575776  	-0.001603 
2289.504592  	-0.001871 
2291.433408  	-0.002008 
2293.362224  	-0.001882 
2295.291040  	-0.002048 
2297.219856  	-0.002263 
2299.148672  	-0.002382 
2301.077488  	-0.002389 
2303.006304  	-0.002387 
2304.935120  	-0.002486 
2306.863936  	-0.002707 
2308.792752  	-0.002768 
2310.721568  	-0.002896 
2312.650384  	-0.003332 
2314.579200  	-0.003840 
2316.508016  	-0.004075 
2318.436832  	-0.004542 
2320.365648  	-0.004804 
2322.294464  	-0.004962 
2324.223280  	-0.005640 
2326.152096  	-0.006381 
2328.080912  	-0.006917 
2330.009728  	-0.007633 
2331.938544  	-0.008079 
2333.867360  	-0.008137 
2335.796176  	-0.008430 
2337.724992  	-0.009069 
2339.653808  	-0.009167 
2341.582624  	-0.009362 
2343.511440  	-0.009226 
2345.440256  	-0.007877 
2347.369072  	-0.006272 
2349.297888  	-0.005833 
2351.226704  	-0.006914 
2353.155520  	-0.008611 
2355.084336  	-0.009914 
2357.013152  	-0.010878 
2358.941968  	-0.011603 
2360.870784  	-0.011360 
2362.799600  	-0.011043 
2364.728416  	-0.010991 
2366.657232  	-0.010177 
2368.586048  	-0.009085 
2370.514864  	-0.007944 
2372.443680  	-0.006950 
2374.372496  	-0.005668 
2376.301312  	-0.004741 
2378.230128  	-0.004072 
2380.158944  	-0.003445 
2382.087760  	-0.002884 
2384.016576  	-0.002489 
2385.945392  	-0.002385 
2387.874208  	-0.002386 
2389.803024  	-0.002347 
2391.731840  	-0.002351 
2393.660656  	-0.002113 
2395.589472  	-0.002136 
2397.518288  	-0.002132 
2399.447104  	-0.002112 
2401.375920  	-0.002046 
2403.304736  	-0.002194 
2405.233552  	-0.002210 
2407.162368  	-0.002185 
2409.091184  	-0.002135 
2411.020000  	-0.001989 
2412.948816  	-0.002080 
2414.877632  	-0.002165 
2416.806448  	-0.002040 
2418.735264  	-0.001793 
2420.664080  	-0.001702 
2422.592896  	-0.001815 
2424.521712  	-0.002179 
2426.450528  	-0.002134 
2428.379344  	-0.001859 
2430.308160  	-0.001806 
2432.236976  	-0.001825 
2434.165792  	-0.001854 
2436.094608  	-0.002017 
2438.023424  	-0.002104 
2439.952240  	-0.001852 
2441.881056  	-0.001841 
2443.809872  	-0.001794 
2445.738688  	-0.001720 
2447.667504  	-0.001765 
2449.596320  	-0.001832 
2451.525136  	-0.001812 
2453.453952  	-0.001765 
2455.382768  	-0.001706 
2457.311584  	-0.001682 
2459.240400  	-0.001773 
2461.169216  	-0.001826 
2463.098032  	-0.001746 
2465.026848  	-0.001702 
2466.955664  	-0.001908 
2468.884480  	-0.002007 
2470.813296  	-0.001905 
2472.742112  	-0.001914 
2474.670928  	-0.001691 
2476.599744  	-0.001648 
2478.528560  	-0.001535 
2480.457376  	-0.001387 
2482.386192  	-0.001490 
2484.315008  	-0.001703 
2486.243824  	-0.001833 
2488.172640  	-0.001647 
2490.101456  	-0.001454 
2492.030272  	-0.001584 
2493.959088  	-0.001666 
2495.887904  	-0.001335 
2497.816720  	-0.001069 
2499.745536  	-0.001360 
2501.674352  	-0.001577 
2503.603168  	-0.001627 
2505.531984  	-0.001652 
2507.460800  	-0.001578 
2509.389616  	-0.001417 
2511.318432  	-0.001313 
2513.247248  	-0.001363 
2515.176064  	-0.001437 
2517.104880  	-0.001702 
2519.033696  	-0.001692 
2520.962512  	-0.001606 
2522.891328  	-0.001733 
2524.820144  	-0.001555 
2526.748960  	-0.001354 
2528.677776  	-0.001275 
2530.606592  	-0.001204 
2532.535408  	-0.001230 
2534.464224  	-0.001361 
2536.393040  	-0.001288 
2538.321856  	-0.001077 
2540.250672  	-0.001029 
2542.179488  	-0.000992 
2544.108304  	-0.000972 
2546.037120  	-0.001145 
2547.965936  	-0.001089 
2549.894752  	-0.000883 
2551.823568  	-0.000885 
2553.752384  	-0.000974 
2555.681200  	-0.000994 
2557.610016  	-0.001060 
2559.538832  	-0.000914 
2561.467648  	-0.000803 
2563.396464  	-0.000970 
2565.325280  	-0.001181 
2567.254096  	-0.001079 
2569.182912  	-0.001049 
2571.111728  	-0.001098 
2573.040544  	-0.001300 
2574.969360  	-0.001310 
2576.898176  	-0.001142 
2578.826992  	-0.000937 
2580.755808  	-0.000857 
2582.684624  	-0.000970 
2584.613440  	-0.000894 
2586.542256  	-0.000846 
2588.471072  	-0.000968 
2590.399888  	-0.000907 
2592.328704  	-0.001084 
2594.257520  	-0.000974 
2596.186336  	-0.000910 
2598.115152  	-0.000955 
2600.043968  	-0.000828 
2601.972784  	-0.000712 
2603.901600  	-0.000702 
2605.830416  	-0.000630 
2607.759232  	-0.000705 
2609.688048  	-0.000825 
2611.616864  	-0.000820 
2613.545680  	-0.000677 
2615.474496  	-0.000626 
2617.403312  	-0.000704 
2619.332128  	-0.000867 
2621.260944  	-0.000896 
2623.189760  	-0.000776 
2625.118576  	-0.000720 
2627.047392  	-0.000650 
2628.976208  	-0.000571 
2630.905024  	-0.000626 
2632.833840  	-0.000558 
2634.762656  	-0.000545 
2636.691472  	-0.000592 
2638.620288  	-0.000574 
2640.549104  	-0.000458 
2642.477920  	-0.000380 
2644.406736  	-0.000454 
2646.335552  	-0.000501 
2648.264368  	-0.000422 
2650.193184  	-0.000202 
2652.122000  	-0.000152 
2654.050816  	-0.000282 
2655.979632  	-0.000359 
2657.908448  	-0.000414 
2659.837264  	-0.000441 
2661.766080  	-0.000533 
2663.694896  	-0.000591 
2665.623712  	-0.000637 
2667.552528  	-0.000638 
2669.481344  	-0.000597 
2671.410160  	-0.000566 
2673.338976  	-0.000534 
2675.267792  	-0.000587 
2677.196608  	-0.000561 
2679.125424  	-0.000490 
2681.054240  	-0.000421 
2682.983056  	-0.000299 
2684.911872  	-0.000331 
2686.840688  	-0.000492 
2688.769504  	-0.000547 
2690.698320  	-0.000504 
2692.627136  	-0.000386 
2694.555952  	-0.000337 
2696.484768  	-0.000297 
2698.413584  	-0.000311 
2700.342400  	-0.000405 
2702.271216  	-0.000450 
2704.200032  	-0.000427 
2706.128848  	-0.000408 
2708.057664  	-0.000329 
2709.986480  	-0.000185 
2711.915296  	-0.000285 
2713.844112  	-0.000346 
2715.772928  	-0.000309 
2717.701744  	-0.000253 
2719.630560  	-0.000186 
2721.559376  	-0.000097 
2723.488192  	-0.000022 
2725.417008  	-0.000041 
2727.345824  	-0.000073 
2729.274640  	-0.000083 
2731.203456  	-0.000113 
2733.132272  	-0.000121 
2735.061088  	-0.000082 
2736.989904  	-0.000145 
2738.918720  	-0.000343 
2740.847536  	-0.000372 
2742.776352  	-0.000243 
2744.705168  	-0.000203 
2746.633984  	-0.000182 
2748.562800  	-0.000190 
2750.491616  	-0.000224 
2752.420432  	-0.000307 
2754.349248  	-0.000304 
2756.278064  	-0.000182 
2758.206880  	-0.000040 
2760.135696  	-0.000081 
2762.064512  	-0.000169 
2763.993328  	-0.000133 
2765.922144  	-0.000057 
2767.850960  	-0.000142 
2769.779776  	-0.000080 
2771.708592  	-0.000054 
2773.637408  	-0.000121 
2775.566224  	-0.000207 
2777.495040  	-0.000229 
2779.423856  	-0.000036 
2781.352672  	0.000038 
2783.281488  	-0.000037 
2785.210304  	-0.000080 
2787.139120  	-0.000058 
2789.067936  	-0.000136 
2790.996752  	-0.000266 
2792.925568  	-0.000230 
2794.854384  	-0.000092 
2796.783200  	-0.000054 
2798.712016  	-0.000061 
2800.640832  	-0.000022 
2802.569648  	-0.000085 
2804.498464  	-0.000115 
2806.427280  	-0.000103 
2808.356096  	-0.000054 
2810.284912  	-0.000103 
2812.213728  	-0.000171 
2814.142544  	-0.000139 
2816.071360  	-0.000195 
2818.000176  	-0.000290 
2819.928992  	-0.000331 
2821.857808  	-0.000332 
2823.786624  	-0.000269 
2825.715440  	-0.000208 
2827.644256  	-0.000289 
2829.573072  	-0.000444 
2831.501888  	-0.000524 
2833.430704  	-0.000645 
2835.359520  	-0.000830 
2837.288336  	-0.000894 
2839.217152  	-0.001087 
2841.145968  	-0.001365 
2843.074784  	-0.001568 
2845.003600  	-0.001594 
2846.932416  	-0.001663 
2848.861232  	-0.001795 
2850.790048  	-0.002082 
2852.718864  	-0.002416 
2854.647680  	-0.002578 
2856.576496  	-0.002682 
2858.505312  	-0.003024 
2860.434128  	-0.003529 
2862.362944  	-0.004042 
2864.291760  	-0.004422 
2866.220576  	-0.004707 
2868.149392  	-0.005096 
2870.078208  	-0.005262 
2872.007024  	-0.005213 
2873.935840  	-0.005337 
2875.864656  	-0.005705 
2877.793472  	-0.006037 
2879.722288  	-0.006197 
2881.651104  	-0.006508 
2883.579920  	-0.007023 
2885.508736  	-0.007189 
2887.437552  	-0.007153 
2889.366368  	-0.007184 
2891.295184  	-0.007342 
2893.224000  	-0.007405 
2895.152816  	-0.007427 
2897.081632  	-0.007678 
2899.010448  	-0.008597 
2900.939264  	-0.009328 
2902.868080  	-0.008700 
2904.796896  	-0.008079 
2906.725712  	-0.007797 
2908.654528  	-0.007647 
2910.583344  	-0.007643 
2912.512160  	-0.007378 
2914.440976  	-0.006753 
2916.369792  	-0.006396 
2918.298608  	-0.006424 
2920.227424  	-0.006413 
2922.156240  	-0.006259 
2924.085056  	-0.005929 
2926.013872  	-0.005703 
2927.942688  	-0.005517 
2929.871504  	-0.005330 
2931.800320  	-0.005070 
2933.729136  	-0.005003 
2935.657952  	-0.005063 
2937.586768  	-0.004946 
2939.515584  	-0.004904 
2941.444400  	-0.005015 
2943.373216  	-0.005114 
2945.302032  	-0.005161 
2947.230848  	-0.005219 
2949.159664  	-0.005313 
2951.088480  	-0.005592 
2953.017296  	-0.005921 
2954.946112  	-0.006376 
2956.874928  	-0.006819 
2958.803744  	-0.007148 
2960.732560  	-0.007329 
2962.661376  	-0.007569 
2964.590192  	-0.008037 
2966.519008  	-0.008595 
2968.447824  	-0.009090 
2970.376640  	-0.009313 
2972.305456  	-0.009468 
2974.234272  	-0.009531 
2976.163088  	-0.009418 
2978.091904  	-0.009407 
2980.020720  	-0.009361 
2981.949536  	-0.009187 
2983.878352  	-0.009322 
2985.807168  	-0.009914 
2987.735984  	-0.010429 
2989.664800  	-0.010031 
2991.593616  	-0.008453 
2993.522432  	-0.007595 
2995.451248  	-0.007407 
2997.380064  	-0.006995 
2999.308880  	-0.006370 
3001.237696  	-0.005758 
3003.166512  	-0.005245 
3005.095328  	-0.004648 
3007.024144  	-0.003979 
3008.952960  	-0.003325 
3010.881776  	-0.002657 
3012.810592  	-0.001908 
3014.739408  	-0.001268 
3016.668224  	-0.000932 
3018.597040  	-0.000519 
3020.525856  	0.000012 
3022.454672  	0.000551 
3024.383488  	0.001010 
3026.312304  	0.001282 
3028.241120  	0.001560 
3030.169936  	0.001963 
3032.098752  	0.002283 
3034.027568  	0.002498 
3035.956384  	0.002828 
3037.885200  	0.003054 
3039.814016  	0.003197 
3041.742832  	0.003387 
3043.671648  	0.003627 
3045.600464  	0.003915 
3047.529280  	0.003989 
3049.458096  	0.003909 
3051.386912  	0.003743 
3053.315728  	0.003734 
3055.244544  	0.003895 
3057.173360  	0.004062 
3059.102176  	0.004181 
3061.030992  	0.004287 
3062.959808  	0.004399 
3064.888624  	0.004514 
3066.817440  	0.004515 
3068.746256  	0.004500 
3070.675072  	0.004657 
3072.603888  	0.004792 
3074.532704  	0.004834 
3076.461520  	0.004860 
3078.390336  	0.004857 
3080.319152  	0.004873 
3082.247968  	0.004977 
3084.176784  	0.005017 
3086.105600  	0.005073 
3088.034416  	0.005229 
3089.963232  	0.005229 
3091.892048  	0.005236 
3093.820864  	0.005248 
3095.749680  	0.005287 
3097.678496  	0.005323 
3099.607312  	0.005240 
3101.536128  	0.005392 
3103.464944  	0.005615 
3105.393760  	0.005632 
3107.322576  	0.005588 
3109.251392  	0.005681 
3111.180208  	0.005740 
3113.109024  	0.005779 
3115.037840  	0.005835 
3116.966656  	0.005895 
3118.895472  	0.005965 
3120.824288  	0.005983 
3122.753104  	0.005946 
3124.681920  	0.005963 
3126.610736  	0.006012 
3128.539552  	0.006081 
3130.468368  	0.006168 
3132.397184  	0.006290 
3134.326000  	0.006427 
3136.254816  	0.006351 
3138.183632  	0.006213 
3140.112448  	0.006287 
3142.041264  	0.006422 
3143.970080  	0.006515 
3145.898896  	0.006637 
3147.827712  	0.006582 
3149.756528  	0.006367 
3151.685344  	0.006424 
3153.614160  	0.006598 
3155.542976  	0.006687 
3157.471792  	0.006756 
3159.400608  	0.006872 
3161.329424  	0.006900 
3163.258240  	0.006753 
3165.187056  	0.006864 
3167.115872  	0.007018 
3169.044688  	0.007101 
3170.973504  	0.007053 
3172.902320  	0.007036 
3174.831136  	0.007170 
3176.759952  	0.007145 
3178.688768  	0.006929 
3180.617584  	0.007103 
3182.546400  	0.007385 
3184.475216  	0.007328 
3186.404032  	0.007378 
3188.332848  	0.007402 
3190.261664  	0.007368 
3192.190480  	0.007234 
3194.119296  	0.007167 
3196.048112  	0.007256 
3197.976928  	0.007379 
3199.905744  	0.007245 
3201.834560  	0.007237 
3203.763376  	0.007224 
3205.692192  	0.007196 
3207.621008  	0.007253 
3209.549824  	0.007175 
3211.478640  	0.007107 
3213.407456  	0.007386 
3215.336272  	0.007513 
3217.265088  	0.007262 
3219.193904  	0.007158 
3221.122720  	0.007338 
3223.051536  	0.007185 
3224.980352  	0.006986 
3226.909168  	0.007066 
3228.837984  	0.007169 
3230.766800  	0.007110 
3232.695616  	0.007112 
3234.624432  	0.007107 
3236.553248  	0.007153 
3238.482064  	0.007336 
3240.410880  	0.007256 
3242.339696  	0.006945 
3244.268512  	0.006858 
3246.197328  	0.006931 
3248.126144  	0.006884 
3250.054960  	0.006967 
3251.983776  	0.007068 
3253.912592  	0.007182 
3255.841408  	0.007073 
3257.770224  	0.006940 
3259.699040  	0.007151 
3261.627856  	0.007125 
3263.556672  	0.007012 
3265.485488  	0.007112 
3267.414304  	0.007117 
3269.343120  	0.007081 
3271.271936  	0.006954 
3273.200752  	0.007137 
3275.129568  	0.007337 
3277.058384  	0.007465 
3278.987200  	0.007471 
3280.916016  	0.007256 
3282.844832  	0.007236 
3284.773648  	0.007485 
3286.702464  	0.007472 
3288.631280  	0.007286 
3290.560096  	0.007095 
3292.488912  	0.007163 
3294.417728  	0.007372 
3296.346544  	0.007518 
3298.275360  	0.007432 
3300.204176  	0.007435 
3302.132992  	0.007627 
3304.061808  	0.007878 
3305.990624  	0.007958 
3307.919440  	0.007962 
3309.848256  	0.008035 
3311.777072  	0.008014 
3313.705888  	0.007975 
3315.634704  	0.007911 
3317.563520  	0.007919 
3319.492336  	0.008181 
3321.421152  	0.008312 
3323.349968  	0.008244 
3325.278784  	0.008204 
3327.207600  	0.008339 
3329.136416  	0.008285 
3331.065232  	0.008171 
3332.994048  	0.008101 
3334.922864  	0.008144 
3336.851680  	0.008193 
3338.780496  	0.008241 
3340.709312  	0.008294 
3342.638128  	0.008315 
3344.566944  	0.008434 
3346.495760  	0.008605 
3348.424576  	0.008369 
3350.353392  	0.008265 
3352.282208  	0.008194 
3354.211024  	0.008070 
3356.139840  	0.008081 
3358.068656  	0.008179 
3359.997472  	0.008220 
3361.926288  	0.008149 
3363.855104  	0.007960 
3365.783920  	0.007892 
3367.712736  	0.007869 
3369.641552  	0.007941 
3371.570368  	0.007879 
3373.499184  	0.007802 
3375.428000  	0.007711 
3377.356816  	0.007668 
3379.285632  	0.007506 
3381.214448  	0.007105 
3383.143264  	0.006949 
3385.072080  	0.007080 
3387.000896  	0.007160 
3388.929712  	0.007099 
3390.858528  	0.006878 
3392.787344  	0.006866 
3394.716160  	0.006970 
3396.644976  	0.007131 
3398.573792  	0.007309 
3400.502608  	0.007258 
3402.431424  	0.007024 
3404.360240  	0.006933 
3406.289056  	0.006838 
3408.217872  	0.006645 
3410.146688  	0.006582 
3412.075504  	0.006723 
3414.004320  	0.006738 
3415.933136  	0.006538 
3417.861952  	0.006265 
3419.790768  	0.006280 
3421.719584  	0.006476 
3423.648400  	0.006400 
3425.577216  	0.006149 
3427.506032  	0.006082 
3429.434848  	0.006113 
3431.363664  	0.006118 
3433.292480  	0.006042 
3435.221296  	0.005846 
3437.150112  	0.005936 
3439.078928  	0.006105 
3441.007744  	0.005955 
3442.936560  	0.005796 
3444.865376  	0.005563 
3446.794192  	0.005513 
3448.723008  	0.005621 
3450.651824  	0.005399 
3452.580640  	0.005362 
3454.509456  	0.005409 
3456.438272  	0.005352 
3458.367088  	0.005168 
3460.295904  	0.005084 
3462.224720  	0.005183 
3464.153536  	0.005236 
3466.082352  	0.004990 
3468.011168  	0.004740 
3469.939984  	0.004668 
3471.868800  	0.004608 
3473.797616  	0.004481 
3475.726432  	0.004357 
3477.655248  	0.004239 
3479.584064  	0.004345 
3481.512880  	0.004289 
3483.441696  	0.003901 
3485.370512  	0.003757 
3487.299328  	0.003978 
3489.228144  	0.004079 
3491.156960  	0.003841 
3493.085776  	0.003726 
3495.014592  	0.003702 
3496.943408  	0.003527 
3498.872224  	0.003478 
3500.801040  	0.003691 
3502.729856  	0.003688 
3504.658672  	0.003356 
3506.587488  	0.003139 
3508.516304  	0.002841 
3510.445120  	0.002810 
3512.373936  	0.002994 
3514.302752  	0.002879 
3516.231568  	0.002844 
3518.160384  	0.002968 
3520.089200  	0.002958 
3522.018016  	0.002837 
3523.946832  	0.002540 
3525.875648  	0.002295 
3527.804464  	0.002206 
3529.733280  	0.002127 
3531.662096  	0.002049 
3533.590912  	0.002201 
3535.519728  	0.002372 
3537.448544  	0.002341 
3539.377360  	0.002112 
3541.306176  	0.001887 
3543.234992  	0.002006 
3545.163808  	0.002260 
3547.092624  	0.002153 
3549.021440  	0.001821 
3550.950256  	0.001623 
3552.879072  	0.001402 
3554.807888  	0.001419 
3556.736704  	0.001544 
3558.665520  	0.001482 
3560.594336  	0.001354 
3562.523152  	0.001291 
3564.451968  	0.001249 
3566.380784  	0.001369 
3568.309600  	0.001263 
3570.238416  	0.000932 
3572.167232  	0.000742 
3574.096048  	0.000779 
3576.024864  	0.000837 
3577.953680  	0.000727 
3579.882496  	0.000541 
3581.811312  	0.000564 
3583.740128  	0.000630 
3585.668944  	0.000810 
3587.597760  	0.000883 
3589.526576  	0.000385 
3591.455392  	-0.000056 
3593.384208  	-0.000023 
3595.313024  	0.000143 
3597.241840  	0.000137 
3599.170656  	-0.000168 
3601.099472  	-0.000248 
3603.028288  	-0.000332 
3604.957104  	-0.000540 
3606.885920  	-0.000554 
3608.814736  	-0.000509 
3610.743552  	-0.000588 
3612.672368  	-0.000858 
3614.601184  	-0.001163 
3616.530000  	-0.001218 
3618.458816  	-0.001410 
3620.387632  	-0.001638 
3622.316448  	-0.001878 
3624.245264  	-0.001876 
3626.174080  	-0.001984 
3628.102896  	-0.002001 
3630.031712  	-0.002226 
3631.960528  	-0.002548 
3633.889344  	-0.002583 
3635.818160  	-0.002810 
3637.746976  	-0.002987 
3639.675792  	-0.003199 
3641.604608  	-0.003288 
3643.533424  	-0.003448 
3645.462240  	-0.003766 
3647.391056  	-0.004050 
3649.319872  	-0.004568 
3651.248688  	-0.004795 
3653.177504  	-0.005024 
3655.106320  	-0.005307 
3657.035136  	-0.005865 
3658.963952  	-0.005817 
3660.892768  	-0.005858 
3662.821584  	-0.005997 
3664.750400  	-0.005727 
3666.679216  	-0.005662 
3668.608032  	-0.005822 
3670.536848  	-0.005806 
3672.465664  	-0.005903 
3674.394480  	-0.006300 
3676.323296  	-0.006814 
3678.252112  	-0.006260 
3680.180928  	-0.005757 
3682.109744  	-0.005930 
3684.038560  	-0.006154 
3685.967376  	-0.005964 
3687.896192  	-0.005674 
3689.825008  	-0.005912 
3691.753824  	-0.006240 
3693.682640  	-0.006200 
3695.611456  	-0.005719 
3697.540272  	-0.005133 
3699.469088  	-0.004746 
3701.397904  	-0.004677 
3703.326720  	-0.004730 
3705.255536  	-0.004349 
3707.184352  	-0.003986 
3709.113168  	-0.004095 
3711.041984  	-0.004151 
3712.970800  	-0.004170 
3714.899616  	-0.004070 
3716.828432  	-0.003662 
3718.757248  	-0.003478 
3720.686064  	-0.003694 
3722.614880  	-0.003683 
3724.543696  	-0.003656 
3726.472512  	-0.003506 
3728.401328  	-0.003512 
3730.330144  	-0.003886 
3732.258960  	-0.004234 
3734.187776  	-0.004070 
3736.116592  	-0.003655 
3738.045408  	-0.003720 
3739.974224  	-0.003568 
3741.903040  	-0.003640 
3743.831856  	-0.003269 
3745.760672  	-0.003025 
3747.689488  	-0.003156 
3749.618304  	-0.003286 
3751.547120  	-0.003473 
3753.475936  	-0.003265 
3755.404752  	-0.003233 
3757.333568  	-0.003325 
3759.262384  	-0.003567 
3761.191200  	-0.003394 
3763.120016  	-0.003216 
3765.048832  	-0.003274 
3766.977648  	-0.003515 
3768.906464  	-0.003545 
3770.835280  	-0.003340 
3772.764096  	-0.003332 
3774.692912  	-0.003452 
3776.621728  	-0.003439 
3778.550544  	-0.003207 
3780.479360  	-0.003314 
3782.408176  	-0.003460 
3784.336992  	-0.003323 
3786.265808  	-0.003227 
3788.194624  	-0.003354 
3790.123440  	-0.003447 
3792.052256  	-0.003322 
3793.981072  	-0.003094 
3795.909888  	-0.003003 
3797.838704  	-0.003282 
3799.767520  	-0.003507 
3801.696336  	-0.003514 
3803.625152  	-0.003544 
3805.553968  	-0.003513 
3807.482784  	-0.003501 
3809.411600  	-0.003408 
3811.340416  	-0.003187 
3813.269232  	-0.003126 
3815.198048  	-0.003338 
3817.126864  	-0.003627 
3819.055680  	-0.003523 
3820.984496  	-0.003647 
3822.913312  	-0.003682 
3824.842128  	-0.003460 
3826.770944  	-0.003383 
3828.699760  	-0.003631 
3830.628576  	-0.003790 
3832.557392  	-0.003843 
3834.486208  	-0.003686 
3836.415024  	-0.003553 
3838.343840  	-0.003651 
3840.272656  	-0.003746 
3842.201472  	-0.003407 
3844.130288  	-0.003354 
3846.059104  	-0.003422 
3847.987920  	-0.003336 
3849.916736  	-0.003103 
3851.845552  	-0.002916 
3853.774368  	-0.003284 
3855.703184  	-0.003816 
3857.632000  	-0.003659 
3859.560816  	-0.003462 
3861.489632  	-0.003444 
3863.418448  	-0.003501 
3865.347264  	-0.003467 
3867.276080  	-0.003363 
3869.204896  	-0.003295 
3871.133712  	-0.003501 
3873.062528  	-0.003515 
3874.991344  	-0.003509 
3876.920160  	-0.003439 
3878.848976  	-0.003165 
3880.777792  	-0.003175 
3882.706608  	-0.003317 
3884.635424  	-0.003294 
3886.564240  	-0.003320 
3888.493056  	-0.003296 
3890.421872  	-0.003171 
3892.350688  	-0.003495 
3894.279504  	-0.003652 
3896.208320  	-0.003502 
3898.137136  	-0.003182 
3900.065952  	-0.002976 
3901.994768  	-0.003064 
3903.923584  	-0.003289 
3905.852400  	-0.003354 
3907.781216  	-0.003453 
3909.710032  	-0.003589 
3911.638848  	-0.003454 
3913.567664  	-0.003375 
3915.496480  	-0.003346 
3917.425296  	-0.003333 
3919.354112  	-0.003313 
3921.282928  	-0.003286 
3923.211744  	-0.003280 
3925.140560  	-0.003352 
3927.069376  	-0.003369 
3928.998192  	-0.003270 
3930.927008  	-0.003200 
3932.855824  	-0.003271 
3934.784640  	-0.003530 
3936.713456  	-0.003471 
3938.642272  	-0.003259 
3940.571088  	-0.003075 
3942.499904  	-0.003238 
3944.428720  	-0.003385 
3946.357536  	-0.003160 
3948.286352  	-0.003082 
3950.215168  	-0.003199 
3952.143984  	-0.003356 
3954.072800  	-0.003308 
3956.001616  	-0.003070 
3957.930432  	-0.003044 
3959.859248  	-0.003058 
3961.788064  	-0.003234 
3963.716880  	-0.003387 
3965.645696  	-0.003508 
3967.574512  	-0.003433 
3969.503328  	-0.003341 
3971.432144  	-0.003206 
3973.360960  	-0.003264 
3975.289776  	-0.003296 
3977.218592  	-0.003226 
3979.147408  	-0.003246 
3981.076224  	-0.003212 
3983.005040  	-0.003191 
3984.933856  	-0.003364 
3986.862672  	-0.003466 
3988.791488  	-0.003299 
3990.720304  	-0.003161 
3992.649120  	-0.003277 
3994.577936  	-0.003349 
3996.506752  	-0.003220 
3998.435568  	-0.003202 
4000.364384  	-0.003286 