##TITLE=No Description
##DATA TYPE=INFRARED SPECTRUM
##XUNITS=1/CM
##YUNITS=Abs
399.264912  	0.228009 
401.193728  	0.213515 
403.122544  	0.214155 
405.051360  	0.218511 
406.980176  	0.221174 
408.908992  	0.222022 
410.837808  	0.228590 
412.766624  	0.226800 
414.695440  	0.219266 
416.624256  	0.212387 
418.553072  	0.217050 
420.481888  	0.216985 
422.410704  	0.215390 
424.339520  	0.210223 
426.268336  	0.209494 
428.197152  	0.206762 
430.125968  	0.208447 
432.054784  	0.204107 
433.983600  	0.203014 
435.912416  	0.202266 
437.841232  	0.201179 
439.770048  	0.201857 
441.698864  	0.202629 
443.627680  	0.202733 
445.556496  	0.202118 
447.485312  	0.196293 
449.414128  	0.195169 
451.342944  	0.195399 
453.271760  	0.197501 
455.200576  	0.198807 
457.129392  	0.202832 
459.058208  	0.202190 
460.987024  	0.199528 
462.915840  	0.198031 
464.844656  	0.201077 
466.773472  	0.201149 
468.702288  	0.199999 
470.631104  	0.199489 
472.559920  	0.201309 
474.488736  	0.199955 
476.417552  	0.200372 
478.346368  	0.200366 
480.275184  	0.200668 
482.204000  	0.199582 
484.132816  	0.199224 
486.061632  	0.198151 
487.990448  	0.200465 
489.919264  	0.202565 
491.848080  	0.203289 
493.776896  	0.202730 
495.705712  	0.205863 
497.634528  	0.204816 
499.563344  	0.203629 
501.492160  	0.204507 
503.420976  	0.207105 
505.349792  	0.206281 
507.278608  	0.207806 
509.207424  	0.209472 
511.136240  	0.210280 
513.065056  	0.210300 
514.993872  	0.211392 
516.922688  	0.210035 
518.851504  	0.212163 
520.780320  	0.212890 
522.709136  	0.212789 
524.637952  	0.212270 
526.566768  	0.214156 
528.495584  	0.214564 
530.424400  	0.213454 
532.353216  	0.212520 
534.282032  	0.214179 
536.210848  	0.214870 
538.139664  	0.214229 
540.068480  	0.213109 
541.997296  	0.213114 
543.926112  	0.211900 
545.854928  	0.211223 
547.783744  	0.211422 
549.712560  	0.211699 
551.641376  	0.210766 
553.570192  	0.210649 
555.499008  	0.210133 
557.427824  	0.209920 
559.356640  	0.209458 
561.285456  	0.209972 
563.214272  	0.209867 
565.143088  	0.208962 
567.071904  	0.207828 
569.000720  	0.207194 
570.929536  	0.206197 
572.858352  	0.205753 
574.787168  	0.204398 
576.715984  	0.204023 
578.644800  	0.203531 
580.573616  	0.202933 
582.502432  	0.201904 
584.431248  	0.201799 
586.360064  	0.200976 
588.288880  	0.200166 
590.217696  	0.199842 
592.146512  	0.199851 
594.075328  	0.199531 
596.004144  	0.199605 
597.932960  	0.198953 
599.861776  	0.198042 
601.790592  	0.197233 
603.719408  	0.197249 
605.648224  	0.197236 
607.577040  	0.196922 
609.505856  	0.196380 
611.434672  	0.196587 
613.363488  	0.195814 
615.292304  	0.195349 
617.221120  	0.194576 
619.149936  	0.194600 
621.078752  	0.194089 
623.007568  	0.193508 
624.936384  	0.192917 
626.865200  	0.192821 
628.794016  	0.192075 
630.722832  	0.191535 
632.651648  	0.191507 
634.580464  	0.191498 
636.509280  	0.191264 
638.438096  	0.191164 
640.366912  	0.190904 
642.295728  	0.190369 
644.224544  	0.189377 
646.153360  	0.189034 
648.082176  	0.187830 
650.010992  	0.186775 
651.939808  	0.185564 
653.868624  	0.184685 
655.797440  	0.183324 
657.726256  	0.182353 
659.655072  	0.181011 
661.583888  	0.179372 
663.512704  	0.177591 
665.441520  	0.177141 
667.370336  	0.175422 
669.299152  	0.173421 
671.227968  	0.172860 
673.156784  	0.171890 
675.085600  	0.170867 
677.014416  	0.170033 
678.943232  	0.168740 
680.872048  	0.167946 
682.800864  	0.167455 
684.729680  	0.167209 
686.658496  	0.166294 
688.587312  	0.165396 
690.516128  	0.164661 
692.444944  	0.163635 
694.373760  	0.162602 
696.302576  	0.162130 
698.231392  	0.160907 
700.160208  	0.159733 
702.089024  	0.158754 
704.017840  	0.157622 
705.946656  	0.156308 
707.875472  	0.155162 
709.804288  	0.153528 
711.733104  	0.152572 
713.661920  	0.151964 
715.590736  	0.151115 
717.519552  	0.150165 
719.448368  	0.149662 
721.377184  	0.149090 
723.306000  	0.148531 
725.234816  	0.148215 
727.163632  	0.147566 
729.092448  	0.146600 
731.021264  	0.145745 
732.950080  	0.144791 
734.878896  	0.143735 
736.807712  	0.142163 
738.736528  	0.141179 
740.665344  	0.140566 
742.594160  	0.140011 
744.522976  	0.138845 
746.451792  	0.138012 
748.380608  	0.137343 
750.309424  	0.136290 
752.238240  	0.135313 
754.167056  	0.135224 
756.095872  	0.134777 
758.024688  	0.133892 
759.953504  	0.132888 
761.882320  	0.132311 
763.811136  	0.131527 
765.739952  	0.130753 
767.668768  	0.129905 
769.597584  	0.129000 
771.526400  	0.128187 
773.455216  	0.127673 
775.384032  	0.127627 
777.312848  	0.127894 
779.241664  	0.128160 
781.170480  	0.128186 
783.099296  	0.126794 
785.028112  	0.124969 
786.956928  	0.122934 
788.885744  	0.120901 
790.814560  	0.119270 
792.743376  	0.117960 
794.672192  	0.116804 
796.601008  	0.115983 
798.529824  	0.114771 
800.458640  	0.113194 
802.387456  	0.111472 
804.316272  	0.110344 
806.245088  	0.109374 
808.173904  	0.108377 
810.102720  	0.107348 
812.031536  	0.106118 
813.960352  	0.105180 
815.889168  	0.104844 
817.817984  	0.104245 
819.746800  	0.103100 
821.675616  	0.102002 
823.604432  	0.101242 
825.533248  	0.100536 
827.462064  	0.099551 
829.390880  	0.098541 
831.319696  	0.097603 
833.248512  	0.096537 
835.177328  	0.095752 
837.106144  	0.094500 
839.034960  	0.093132 
840.963776  	0.091710 
842.892592  	0.090358 
844.821408  	0.088918 
846.750224  	0.087633 
848.679040  	0.086553 
850.607856  	0.085628 
852.536672  	0.084565 
854.465488  	0.083585 
856.394304  	0.082558 
858.323120  	0.081524 
860.251936  	0.080522 
862.180752  	0.079546 
864.109568  	0.078247 
866.038384  	0.077404 
867.967200  	0.076704 
869.896016  	0.075865 
871.824832  	0.074992 
873.753648  	0.074807 
875.682464  	0.074706 
877.611280  	0.074107 
879.540096  	0.073297 
881.468912  	0.073318 
883.397728  	0.073380 
885.326544  	0.073235 
887.255360  	0.072806 
889.184176  	0.072221 
891.112992  	0.071389 
893.041808  	0.070780 
894.970624  	0.069956 
896.899440  	0.068876 
898.828256  	0.067956 
900.757072  	0.067156 
902.685888  	0.066617 
904.614704  	0.066142 
906.543520  	0.065762 
908.472336  	0.065758 
910.401152  	0.066066 
912.329968  	0.066405 
914.258784  	0.067048 
916.187600  	0.067604 
918.116416  	0.067742 
920.045232  	0.067642 
921.974048  	0.067307 
923.902864  	0.066904 
925.831680  	0.066408 
927.760496  	0.066048 
929.689312  	0.065649 
931.618128  	0.065414 
933.546944  	0.065064 
935.475760  	0.064644 
937.404576  	0.064359 
939.333392  	0.064155 
941.262208  	0.063829 
943.191024  	0.063896 
945.119840  	0.064185 
947.048656  	0.064455 
948.977472  	0.064916 
950.906288  	0.065676 
952.835104  	0.066568 
954.763920  	0.067543 
956.692736  	0.068380 
958.621552  	0.068959 
960.550368  	0.068984 
962.479184  	0.068785 
964.408000  	0.068116 
966.336816  	0.066889 
968.265632  	0.064931 
970.194448  	0.062698 
972.123264  	0.060181 
974.052080  	0.057374 
975.980896  	0.054527 
977.909712  	0.051639 
979.838528  	0.049262 
981.767344  	0.047134 
983.696160  	0.045277 
985.624976  	0.043920 
987.553792  	0.043016 
989.482608  	0.042565 
991.411424  	0.042597 
993.340240  	0.042738 
995.269056  	0.043334 
997.197872  	0.044186 
999.126688  	0.044962 
1001.055504  	0.045706 
1002.984320  	0.046407 
1004.913136  	0.047181 
1006.841952  	0.047931 
1008.770768  	0.048656 
1010.699584  	0.049053 
1012.628400  	0.049244 
1014.557216  	0.049260 
1016.486032  	0.049136 
1018.414848  	0.048941 
1020.343664  	0.048673 
1022.272480  	0.048336 
1024.201296  	0.047787 
1026.130112  	0.046091 
1028.058928  	0.045058 
1029.987744  	0.045964 
1031.916560  	0.045967 
1033.845376  	0.045270 
1035.774192  	0.044260 
1037.703008  	0.043471 
1039.631824  	0.043926 
1041.560640  	0.044603 
1043.489456  	0.045451 
1045.418272  	0.046895 
1047.347088  	0.049128 
1049.275904  	0.051735 
1051.204720  	0.054426 
1053.133536  	0.057146 
1055.062352  	0.059671 
1056.991168  	0.061243 
1058.919984  	0.063222 
1060.848800  	0.065182 
1062.777616  	0.065330 
1064.706432  	0.063474 
1066.635248  	0.062403 
1068.564064  	0.063259 
1070.492880  	0.062791 
1072.421696  	0.061368 
1074.350512  	0.060037 
1076.279328  	0.058788 
1078.208144  	0.058372 
1080.136960  	0.059094 
1082.065776  	0.059629 
1083.994592  	0.059819 
1085.923408  	0.060415 
1087.852224  	0.060794 
1089.781040  	0.060791 
1091.709856  	0.060883 
1093.638672  	0.060402 
1095.567488  	0.058965 
1097.496304  	0.057133 
1099.425120  	0.055083 
1101.353936  	0.052890 
1103.282752  	0.050688 
1105.211568  	0.048422 
1107.140384  	0.046319 
1109.069200  	0.044632 
1110.998016  	0.042645 
1112.926832  	0.040607 
1114.855648  	0.038960 
1116.784464  	0.037223 
1118.713280  	0.035325 
1120.642096  	0.033459 
1122.570912  	0.031784 
1124.499728  	0.030224 
1126.428544  	0.028674 
1128.357360  	0.027177 
1130.286176  	0.025758 
1132.214992  	0.024558 
1134.143808  	0.023404 
1136.072624  	0.022379 
1138.001440  	0.021578 
1139.930256  	0.020718 
1141.859072  	0.019748 
1143.787888  	0.018969 
1145.716704  	0.018011 
1147.645520  	0.017157 
1149.574336  	0.016712 
1151.503152  	0.016264 
1153.431968  	0.016005 
1155.360784  	0.015783 
1157.289600  	0.015850 
1159.218416  	0.015844 
1161.147232  	0.015854 
1163.076048  	0.015873 
1165.004864  	0.015963 
1166.933680  	0.016225 
1168.862496  	0.016500 
1170.791312  	0.016895 
1172.720128  	0.017296 
1174.648944  	0.017766 
1176.577760  	0.018278 
1178.506576  	0.018866 
1180.435392  	0.019182 
1182.364208  	0.019673 
1184.293024  	0.020344 
1186.221840  	0.020732 
1188.150656  	0.021215 
1190.079472  	0.022034 
1192.008288  	0.022975 
1193.937104  	0.023961 
1195.865920  	0.025278 
1197.794736  	0.026513 
1199.723552  	0.028009 
1201.652368  	0.029604 
1203.581184  	0.031238 
1205.510000  	0.032783 
1207.438816  	0.034429 
1209.367632  	0.036090 
1211.296448  	0.037370 
1213.225264  	0.038670 
1215.154080  	0.039815 
1217.082896  	0.040824 
1219.011712  	0.041613 
1220.940528  	0.042216 
1222.869344  	0.042613 
1224.798160  	0.043018 
1226.726976  	0.043342 
1228.655792  	0.043712 
1230.584608  	0.043937 
1232.513424  	0.044124 
1234.442240  	0.044227 
1236.371056  	0.043980 
1238.299872  	0.043317 
1240.228688  	0.041900 
1242.157504  	0.040552 
1244.086320  	0.039758 
1246.015136  	0.038366 
1247.943952  	0.036489 
1249.872768  	0.034541 
1251.801584  	0.033105 
1253.730400  	0.031594 
1255.659216  	0.030083 
1257.588032  	0.028545 
1259.516848  	0.027107 
1261.445664  	0.025896 
1263.374480  	0.024912 
1265.303296  	0.023995 
1267.232112  	0.023254 
1269.160928  	0.022705 
1271.089744  	0.022208 
1273.018560  	0.022023 
1274.947376  	0.022131 
1276.876192  	0.022238 
1278.805008  	0.022197 
1280.733824  	0.021831 
1282.662640  	0.021083 
1284.591456  	0.020288 
1286.520272  	0.019405 
1288.449088  	0.018685 
1290.377904  	0.018284 
1292.306720  	0.017777 
1294.235536  	0.017129 
1296.164352  	0.016315 
1298.093168  	0.015312 
1300.021984  	0.014407 
1301.950800  	0.013605 
1303.879616  	0.012753 
1305.808432  	0.012049 
1307.737248  	0.011509 
1309.666064  	0.011143 
1311.594880  	0.010883 
1313.523696  	0.010685 
1315.452512  	0.010527 
1317.381328  	0.010496 
1319.310144  	0.010526 
1321.238960  	0.010608 
1323.167776  	0.010852 
1325.096592  	0.010959 
1327.025408  	0.011011 
1328.954224  	0.011008 
1330.883040  	0.010808 
1332.811856  	0.010483 
1334.740672  	0.010130 
1336.669488  	0.009935 
1338.598304  	0.009867 
1340.527120  	0.009723 
1342.455936  	0.009420 
1344.384752  	0.009326 
1346.313568  	0.009393 
1348.242384  	0.009620 
1350.171200  	0.009935 
1352.100016  	0.010280 
1354.028832  	0.010637 
1355.957648  	0.011207 
1357.886464  	0.011651 
1359.815280  	0.011883 
1361.744096  	0.012296 
1363.672912  	0.012621 
1365.601728  	0.012522 
1367.530544  	0.012370 
1369.459360  	0.012204 
1371.388176  	0.011662 
1373.316992  	0.011235 
1375.245808  	0.010657 
1377.174624  	0.009710 
1379.103440  	0.008943 
1381.032256  	0.008323 
1382.961072  	0.007935 
1384.889888  	0.007713 
1386.818704  	0.007833 
1388.747520  	0.007911 
1390.676336  	0.007079 
1392.605152  	0.005399 
1394.533968  	0.005017 
1396.462784  	0.006516 
1398.391600  	0.007029 
1400.320416  	0.007050 
1402.249232  	0.006574 
1404.178048  	0.006638 
1406.106864  	0.007055 
1408.035680  	0.007340 
1409.964496  	0.007880 
1411.893312  	0.008961 
1413.822128  	0.009826 
1415.750944  	0.010496 
1417.679760  	0.011266 
1419.608576  	0.012175 
1421.537392  	0.012008 
1423.466208  	0.011771 
1425.395024  	0.011643 
1427.323840  	0.011181 
1429.252656  	0.010923 
1431.181472  	0.010821 
1433.110288  	0.010592 
1435.039104  	0.010440 
1436.967920  	0.010988 
1438.896736  	0.011067 
1440.825552  	0.010861 
1442.754368  	0.010794 
1444.683184  	0.010680 
1446.612000  	0.010709 
1448.540816  	0.010838 
1450.469632  	0.010701 
1452.398448  	0.010728 
1454.327264  	0.010767 
1456.256080  	0.011175 
1458.184896  	0.012240 
1460.113712  	0.012163 
1462.042528  	0.011870 
1463.971344  	0.012078 
1465.900160  	0.012789 
1467.828976  	0.013073 
1469.757792  	0.013441 
1471.686608  	0.014303 
1473.615424  	0.015986 
1475.544240  	0.016738 
1477.473056  	0.017438 
1479.401872  	0.017744 
1481.330688  	0.018065 
1483.259504  	0.018100 
1485.188320  	0.017942 
1487.117136  	0.017742 
1489.045952  	0.017615 
1490.974768  	0.017012 
1492.903584  	0.015937 
1494.832400  	0.014927 
1496.761216  	0.014230 
1498.690032  	0.013421 
1500.618848  	0.012748 
1502.547664  	0.011868 
1504.476480  	0.010725 
1506.405296  	0.010625 
1508.334112  	0.011453 
1510.262928  	0.010821 
1512.191744  	0.010304 
1514.120560  	0.009909 
1516.049376  	0.009944 
1517.978192  	0.010147 
1519.907008  	0.010066 
1521.835824  	0.011030 
1523.764640  	0.011629 
1525.693456  	0.012169 
1527.622272  	0.012809 
1529.551088  	0.012940 
1531.479904  	0.012919 
1533.408720  	0.013143 
1535.337536  	0.012833 
1537.266352  	0.011649 
1539.195168  	0.010880 
1541.123984  	0.011155 
1543.052800  	0.010997 
1544.981616  	0.010606 
1546.910432  	0.010182 
1548.839248  	0.009855 
1550.768064  	0.009912 
1552.696880  	0.009565 
1554.625696  	0.009686 
1556.554512  	0.009228 
1558.483328  	0.009737 
1560.412144  	0.011643 
1562.340960  	0.011664 
1564.269776  	0.012058 
1566.198592  	0.012975 
1568.127408  	0.013419 
1570.056224  	0.015009 
1571.985040  	0.016108 
1573.913856  	0.016317 
1575.842672  	0.017013 
1577.771488  	0.018050 
1579.700304  	0.017716 
1581.629120  	0.017526 
1583.557936  	0.017538 
1585.486752  	0.017912 
1587.415568  	0.018482 
1589.344384  	0.019524 
1591.273200  	0.020656 
1593.202016  	0.022077 
1595.130832  	0.023391 
1597.059648  	0.024680 
1598.988464  	0.025594 
1600.917280  	0.026449 
1602.846096  	0.027059 
1604.774912  	0.027438 
1606.703728  	0.027460 
1608.632544  	0.027227 
1610.561360  	0.026909 
1612.490176  	0.026855 
1614.418992  	0.026264 
1616.347808  	0.026695 
1618.276624  	0.028108 
1620.205440  	0.028614 
1622.134256  	0.029249 
1624.063072  	0.031475 
1625.991888  	0.033007 
1627.920704  	0.034965 
1629.849520  	0.037151 
1631.778336  	0.038607 
1633.707152  	0.039661 
1635.635968  	0.042671 
1637.564784  	0.045541 
1639.493600  	0.046621 
1641.422416  	0.047924 
1643.351232  	0.048683 
1645.280048  	0.049158 
1647.208864  	0.051073 
1649.137680  	0.051439 
1651.066496  	0.050144 
1652.995312  	0.051047 
1654.924128  	0.052823 
1656.852944  	0.051573 
1658.781760  	0.050950 
1660.710576  	0.050467 
1662.639392  	0.050601 
1664.568208  	0.050440 
1666.497024  	0.049540 
1668.425840  	0.049036 
1670.354656  	0.049288 
1672.283472  	0.048890 
1674.212288  	0.048532 
1676.141104  	0.049472 
1678.069920  	0.049451 
1679.998736  	0.049537 
1681.927552  	0.049255 
1683.856368  	0.049639 
1685.785184  	0.051508 
1687.714000  	0.051284 
1689.642816  	0.051255 
1691.571632  	0.050849 
1693.500448  	0.049767 
1695.429264  	0.049284 
1697.358080  	0.048902 
1699.286896  	0.047424 
1701.215712  	0.047558 
1703.144528  	0.045920 
1705.073344  	0.044421 
1707.002160  	0.043035 
1708.930976  	0.041285 
1710.859792  	0.039419 
1712.788608  	0.037323 
1714.717424  	0.035173 
1716.646240  	0.032861 
1718.575056  	0.030903 
1720.503872  	0.028704 
1722.432688  	0.026578 
1724.361504  	0.024498 
1726.290320  	0.022268 
1728.219136  	0.020032 
1730.147952  	0.018243 
1732.076768  	0.016420 
1734.005584  	0.014955 
1735.934400  	0.013317 
1737.863216  	0.011564 
1739.792032  	0.010316 
1741.720848  	0.009463 
1743.649664  	0.008603 
1745.578480  	0.007638 
1747.507296  	0.006850 
1749.436112  	0.006348 
1751.364928  	0.006083 
1753.293744  	0.005679 
1755.222560  	0.004914 
1757.151376  	0.004710 
1759.080192  	0.004291 
1761.009008  	0.004086 
1762.937824  	0.004063 
1764.866640  	0.003771 
1766.795456  	0.003626 
1768.724272  	0.003667 
1770.653088  	0.003002 
1772.581904  	0.003134 
1774.510720  	0.003266 
1776.439536  	0.003070 
1778.368352  	0.002882 
1780.297168  	0.002989 
1782.225984  	0.002808 
1784.154800  	0.002835 
1786.083616  	0.002970 
1788.012432  	0.002791 
1789.941248  	0.002601 
1791.870064  	0.002789 
1793.798880  	0.002778 
1795.727696  	0.002520 
1797.656512  	0.002026 
1799.585328  	0.001769 
1801.514144  	0.002095 
1803.442960  	0.002258 
1805.371776  	0.002046 
1807.300592  	0.002058 
1809.229408  	0.001992 
1811.158224  	0.001959 
1813.087040  	0.001928 
1815.015856  	0.001661 
1816.944672  	0.001535 
1818.873488  	0.001771 
1820.802304  	0.001851 
1822.731120  	0.001815 
1824.659936  	0.002059 
1826.588752  	0.002217 
1828.517568  	0.001756 
1830.446384  	0.001947 
1832.375200  	0.001944 
1834.304016  	0.001874 
1836.232832  	0.001799 
1838.161648  	0.001835 
1840.090464  	0.001668 
1842.019280  	0.001444 
1843.948096  	0.001626 
1845.876912  	0.001934 
1847.805728  	0.001746 
1849.734544  	0.001765 
1851.663360  	0.001429 
1853.592176  	0.001454 
1855.520992  	0.001450 
1857.449808  	0.001650 
1859.378624  	0.001523 
1861.307440  	0.001523 
1863.236256  	0.001761 
1865.165072  	0.001688 
1867.093888  	0.001315 
1869.022704  	0.001513 
1870.951520  	0.001629 
1872.880336  	0.001407 
1874.809152  	0.001359 
1876.737968  	0.001602 
1878.666784  	0.001898 
1880.595600  	0.002128 
1882.524416  	0.001729 
1884.453232  	0.001667 
1886.382048  	0.001630 
1888.310864  	0.001491 
1890.239680  	0.001366 
1892.168496  	0.001178 
1894.097312  	0.001381 
1896.026128  	0.001785 
1897.954944  	0.001563 
1899.883760  	0.001547 
1901.812576  	0.001590 
1903.741392  	0.001663 
1905.670208  	0.001577 
1907.599024  	0.001543 
1909.527840  	0.001554 
1911.456656  	0.001421 
1913.385472  	0.001394 
1915.314288  	0.001172 
1917.243104  	0.001254 
1919.171920  	0.001463 
1921.100736  	0.001007 
1923.029552  	0.000908 
1924.958368  	0.001267 
1926.887184  	0.001311 
1928.816000  	0.001333 
1930.744816  	0.001944 
1932.673632  	0.001803 
1934.602448  	0.001500 
1936.531264  	0.001325 
1938.460080  	0.001447 
1940.388896  	0.000428 
1942.317712  	0.000374 
1944.246528  	0.000500 
1946.175344  	0.000255 
1948.104160  	0.000714 
1950.032976  	0.001551 
1951.961792  	0.000926 
1953.890608  	0.000612 
1955.819424  	0.000763 
1957.748240  	0.001121 
1959.677056  	0.000869 
1961.605872  	0.000814 
1963.534688  	0.001438 
1965.463504  	0.001374 
1967.392320  	0.001456 
1969.321136  	0.001875 
1971.249952  	0.001059 
1973.178768  	-0.000330 
1975.107584  	-0.000237 
1977.036400  	0.002096 
1978.965216  	0.003272 
1980.894032  	0.002867 
1982.822848  	0.001579 
1984.751664  	0.001428 
1986.680480  	0.002089 
1988.609296  	0.002947 
1990.538112  	0.001840 
1992.466928  	0.001052 
1994.395744  	0.000628 
1996.324560  	0.000421 
1998.253376  	0.000933 
2000.182192  	0.001811 
2002.111008  	0.001667 
2004.039824  	0.001416 
2005.968640  	0.001964 
2007.897456  	0.002267 
2009.826272  	0.001892 
2011.755088  	0.002674 
2013.683904  	0.000972 
2015.612720  	0.000022 
2017.541536  	0.001451 
2019.470352  	0.002557 
2021.399168  	0.001888 
2023.327984  	0.001258 
2025.256800  	0.000815 
2027.185616  	0.000090 
2029.114432  	0.001176 
2031.043248  	0.001870 
2032.972064  	0.002472 
2034.900880  	0.003169 
2036.829696  	0.002215 
2038.758512  	0.001676 
2040.687328  	0.001710 
2042.616144  	0.001479 
2044.544960  	0.002185 
2046.473776  	0.002894 
2048.402592  	0.002889 
2050.331408  	0.002822 
2052.260224  	0.002451 
2054.189040  	0.002760 
2056.117856  	0.001978 
2058.046672  	0.000998 
2059.975488  	0.001708 
2061.904304  	0.002072 
2063.833120  	0.002310 
2065.761936  	0.001937 
2067.690752  	0.001231 
2069.619568  	0.002160 
2071.548384  	0.002850 
2073.477200  	0.002544 
2075.406016  	0.002046 
2077.334832  	0.001155 
2079.263648  	0.001006 
2081.192464  	0.001641 
2083.121280  	0.002062 
2085.050096  	0.002029 
2086.978912  	0.001768 
2088.907728  	0.001809 
2090.836544  	0.001586 
2092.765360  	0.001235 
2094.694176  	0.001332 
2096.622992  	0.001765 
2098.551808  	0.001818 
2100.480624  	0.002192 
2102.409440  	0.002111 
2104.338256  	0.002256 
2106.267072  	0.002798 
2108.195888  	0.002870 
2110.124704  	0.002319 
2112.053520  	0.001773 
2113.982336  	0.001419 
2115.911152  	0.001717 
2117.839968  	0.001843 
2119.768784  	0.001239 
2121.697600  	0.000635 
2123.626416  	0.001101 
2125.555232  	0.001000 
2127.484048  	0.000915 
2129.412864  	0.000668 
2131.341680  	0.000425 
2133.270496  	0.000170 
2135.199312  	-0.000045 
2137.128128  	0.000030 
2139.056944  	0.000265 
2140.985760  	0.000565 
2142.914576  	0.001471 
2144.843392  	0.000801 
2146.772208  	0.000039 
2148.701024  	0.000729 
2150.629840  	0.001145 
2152.558656  	0.000334 
2154.487472  	-0.000827 
2156.416288  	-0.001057 
2158.345104  	-0.000089 
2160.273920  	0.002609 
2162.202736  	0.003154 
2164.131552  	0.003475 
2166.060368  	0.003988 
2167.989184  	0.003103 
2169.918000  	0.002523 
2171.846816  	0.002513 
2173.775632  	0.001946 
2175.704448  	0.001359 
2177.633264  	0.002620 
2179.562080  	0.003855 
2181.490896  	0.005004 
2183.419712  	0.004602 
2185.348528  	0.003893 
2187.277344  	0.003869 
2189.206160  	0.003075 
2191.134976  	0.002706 
2193.063792  	0.002740 
2194.992608  	0.002385 
2196.921424  	0.001780 
2198.850240  	0.001037 
2200.779056  	0.002283 
2202.707872  	0.003618 
2204.636688  	0.002736 
2206.565504  	0.001591 
2208.494320  	0.001339 
2210.423136  	0.001957 
2212.351952  	0.003032 
2214.280768  	0.002666 
2216.209584  	0.001949 
2218.138400  	0.001796 
2220.067216  	0.002440 
2221.996032  	0.002473 
2223.924848  	0.002246 
2225.853664  	0.002663 
2227.782480  	0.002300 
2229.711296  	0.001725 
2231.640112  	0.001714 
2233.568928  	0.001162 
2235.497744  	0.001315 
2237.426560  	0.002415 
2239.355376  	0.002183 
2241.284192  	0.001327 
2243.213008  	0.002099 
2245.141824  	0.002419 
2247.070640  	0.002023 
2248.999456  	0.001433 
2250.928272  	0.001186 
2252.857088  	0.001717 
2254.785904  	0.002733 
2256.714720  	0.002443 
2258.643536  	0.001787 
2260.572352  	0.001996 
2262.501168  	0.002109 
2264.429984  	0.002411 
2266.358800  	0.002307 
2268.287616  	0.001991 
2270.216432  	0.002319 
2272.145248  	0.002511 
2274.074064  	0.002572 
2276.002880  	0.003064 
2277.931696  	0.003239 
2279.860512  	0.003035 
2281.789328  	0.003317 
2283.718144  	0.003373 
2285.646960  	0.003245 
2287.575776  	0.002961 
2289.504592  	0.002843 
2291.433408  	0.002759 
2293.362224  	0.002568 
2295.291040  	0.002338 
2297.219856  	0.002195 
2299.148672  	0.002023 
2301.077488  	0.002194 
2303.006304  	0.002170 
2304.935120  	0.002028 
2306.863936  	0.001943 
2308.792752  	0.001935 
2310.721568  	0.001617 
2312.650384  	0.001282 
2314.579200  	0.000959 
2316.508016  	0.000679 
2318.436832  	0.000190 
2320.365648  	0.000069 
2322.294464  	0.000408 
2324.223280  	-0.000071 
2326.152096  	-0.001209 
2328.080912  	-0.002095 
2330.009728  	-0.002471 
2331.938544  	-0.002422 
2333.867360  	-0.002501 
2335.796176  	-0.002679 
2337.724992  	-0.003272 
2339.653808  	-0.003355 
2341.582624  	-0.003316 
2343.511440  	-0.003266 
2345.440256  	-0.001742 
2347.369072  	-0.000413 
2349.297888  	-0.000715 
2351.226704  	-0.001917 
2353.155520  	-0.003187 
2355.084336  	-0.003894 
2357.013152  	-0.005015 
2358.941968  	-0.005798 
2360.870784  	-0.005608 
2362.799600  	-0.005069 
2364.728416  	-0.004652 
2366.657232  	-0.003739 
2368.586048  	-0.002912 
2370.514864  	-0.002017 
2372.443680  	-0.001189 
2374.372496  	-0.000327 
2376.301312  	0.000441 
2378.230128  	0.001163 
2380.158944  	0.001507 
2382.087760  	0.001689 
2384.016576  	0.001987 
2385.945392  	0.002126 
2387.874208  	0.002003 
2389.803024  	0.001876 
2391.731840  	0.001819 
2393.660656  	0.002059 
2395.589472  	0.002293 
2397.518288  	0.002450 
2399.447104  	0.002366 
2401.375920  	0.002190 
2403.304736  	0.001991 
2405.233552  	0.002133 
2407.162368  	0.002244 
2409.091184  	0.002358 
2411.020000  	0.002367 
2412.948816  	0.002303 
2414.877632  	0.002223 
2416.806448  	0.002362 
2418.735264  	0.002638 
2420.664080  	0.002685 
2422.592896  	0.002668 
2424.521712  	0.002571 
2426.450528  	0.002747 
2428.379344  	0.002935 
2430.308160  	0.002732 
2432.236976  	0.002614 
2434.165792  	0.002598 
2436.094608  	0.002682 
2438.023424  	0.002872 
2439.952240  	0.002911 
2441.881056  	0.002665 
2443.809872  	0.002725 
2445.738688  	0.002932 
2447.667504  	0.003029 
2449.596320  	0.002923 
2451.525136  	0.002864 
2453.453952  	0.002973 
2455.382768  	0.003182 
2457.311584  	0.003241 
2459.240400  	0.003210 
2461.169216  	0.003171 
2463.098032  	0.003182 
2465.026848  	0.003081 
2466.955664  	0.002912 
2468.884480  	0.002728 
2470.813296  	0.002726 
2472.742112  	0.002808 
2474.670928  	0.002954 
2476.599744  	0.003089 
2478.528560  	0.003142 
2480.457376  	0.003051 
2482.386192  	0.002984 
2484.315008  	0.003002 
2486.243824  	0.003013 
2488.172640  	0.003336 
2490.101456  	0.003409 
2492.030272  	0.003142 
2493.959088  	0.002970 
2495.887904  	0.003189 
2497.816720  	0.003294 
2499.745536  	0.003323 
2501.674352  	0.003310 
2503.603168  	0.003245 
2505.531984  	0.003333 
2507.460800  	0.003234 
2509.389616  	0.003291 
2511.318432  	0.003405 
2513.247248  	0.003165 
2515.176064  	0.003200 
2517.104880  	0.003172 
2519.033696  	0.003268 
2520.962512  	0.003580 
2522.891328  	0.003693 
2524.820144  	0.003615 
2526.748960  	0.003653 
2528.677776  	0.003626 
2530.606592  	0.003552 
2532.535408  	0.003619 
2534.464224  	0.003852 
2536.393040  	0.003960 
2538.321856  	0.003796 
2540.250672  	0.003864 
2542.179488  	0.004271 
2544.108304  	0.004214 
2546.037120  	0.003880 
2547.965936  	0.004006 
2549.894752  	0.004106 
2551.823568  	0.004017 
2553.752384  	0.003846 
2555.681200  	0.003759 
2557.610016  	0.003864 
2559.538832  	0.004140 
2561.467648  	0.004252 
2563.396464  	0.004181 
2565.325280  	0.004180 
2567.254096  	0.004243 
2569.182912  	0.004072 
2571.111728  	0.004084 
2573.040544  	0.004169 
2574.969360  	0.004131 
2576.898176  	0.004130 
2578.826992  	0.004395 
2580.755808  	0.004483 
2582.684624  	0.004402 
2584.613440  	0.004433 
2586.542256  	0.004525 
2588.471072  	0.004524 
2590.399888  	0.004681 
2592.328704  	0.004494 
2594.257520  	0.004479 
2596.186336  	0.004608 
2598.115152  	0.004754 
2600.043968  	0.004844 
2601.972784  	0.004838 
2603.901600  	0.004916 
2605.830416  	0.004971 
2607.759232  	0.004830 
2609.688048  	0.004869 
2611.616864  	0.004930 
2613.545680  	0.004966 
2615.474496  	0.005158 
2617.403312  	0.005114 
2619.332128  	0.004884 
2621.260944  	0.004814 
2623.189760  	0.004908 
2625.118576  	0.005054 
2627.047392  	0.005125 
2628.976208  	0.005192 
2630.905024  	0.005263 
2632.833840  	0.005262 
2634.762656  	0.005205 
2636.691472  	0.005259 
2638.620288  	0.005424 
2640.549104  	0.005491 
2642.477920  	0.005545 
2644.406736  	0.005593 
2646.335552  	0.005577 
2648.264368  	0.005602 
2650.193184  	0.005776 
2652.122000  	0.005840 
2654.050816  	0.005804 
2655.979632  	0.005703 
2657.908448  	0.005622 
2659.837264  	0.005691 
2661.766080  	0.005621 
2663.694896  	0.005465 
2665.623712  	0.005369 
2667.552528  	0.005394 
2669.481344  	0.005477 
2671.410160  	0.005542 
2673.338976  	0.005638 
2675.267792  	0.005609 
2677.196608  	0.005718 
2679.125424  	0.005840 
2681.054240  	0.005800 
2682.983056  	0.005872 
2684.911872  	0.005848 
2686.840688  	0.005748 
2688.769504  	0.005779 
2690.698320  	0.005853 
2692.627136  	0.005945 
2694.555952  	0.006000 
2696.484768  	0.005973 
2698.413584  	0.005976 
2700.342400  	0.005998 
2702.271216  	0.006091 
2704.200032  	0.006026 
2706.128848  	0.006034 
2708.057664  	0.006167 
2709.986480  	0.006272 
2711.915296  	0.006305 
2713.844112  	0.006309 
2715.772928  	0.006209 
2717.701744  	0.006227 
2719.630560  	0.006304 
2721.559376  	0.006401 
2723.488192  	0.006457 
2725.417008  	0.006537 
2727.345824  	0.006528 
2729.274640  	0.006541 
2731.203456  	0.006578 
2733.132272  	0.006625 
2735.061088  	0.006688 
2736.989904  	0.006596 
2738.918720  	0.006512 
2740.847536  	0.006569 
2742.776352  	0.006678 
2744.705168  	0.006759 
2746.633984  	0.006733 
2748.562800  	0.006709 
2750.491616  	0.006759 
2752.420432  	0.006705 
2754.349248  	0.006617 
2756.278064  	0.006856 
2758.206880  	0.007040 
2760.135696  	0.006913 
2762.064512  	0.006863 
2763.993328  	0.006894 
2765.922144  	0.006931 
2767.850960  	0.006955 
2769.779776  	0.007034 
2771.708592  	0.007037 
2773.637408  	0.007035 
2775.566224  	0.007002 
2777.495040  	0.007100 
2779.423856  	0.007305 
2781.352672  	0.007275 
2783.281488  	0.007135 
2785.210304  	0.007166 
2787.139120  	0.007205 
2789.067936  	0.007159 
2790.996752  	0.007231 
2792.925568  	0.007348 
2794.854384  	0.007243 
2796.783200  	0.007210 
2798.712016  	0.007314 
2800.640832  	0.007435 
2802.569648  	0.007370 
2804.498464  	0.007371 
2806.427280  	0.007359 
2808.356096  	0.007315 
2810.284912  	0.007371 
2812.213728  	0.007485 
2814.142544  	0.007641 
2816.071360  	0.007609 
2818.000176  	0.007443 
2819.928992  	0.007383 
2821.857808  	0.007405 
2823.786624  	0.007478 
2825.715440  	0.007537 
2827.644256  	0.007338 
2829.573072  	0.007237 
2831.501888  	0.007317 
2833.430704  	0.007208 
2835.359520  	0.006977 
2837.288336  	0.006845 
2839.217152  	0.006658 
2841.145968  	0.006456 
2843.074784  	0.006353 
2845.003600  	0.006298 
2846.932416  	0.006313 
2848.861232  	0.006275 
2850.790048  	0.006029 
2852.718864  	0.005729 
2854.647680  	0.005540 
2856.576496  	0.005340 
2858.505312  	0.005037 
2860.434128  	0.004670 
2862.362944  	0.004251 
2864.291760  	0.003867 
2866.220576  	0.003610 
2868.149392  	0.003391 
2870.078208  	0.003260 
2872.007024  	0.003297 
2873.935840  	0.003276 
2875.864656  	0.003176 
2877.793472  	0.003087 
2879.722288  	0.003003 
2881.651104  	0.002809 
2883.579920  	0.002387 
2885.508736  	0.002300 
2887.437552  	0.002481 
2889.366368  	0.002444 
2891.295184  	0.002315 
2893.224000  	0.002248 
2895.152816  	0.002196 
2897.081632  	0.002016 
2899.010448  	0.001248 
2900.939264  	0.000584 
2902.868080  	0.001086 
2904.796896  	0.001663 
2906.725712  	0.001999 
2908.654528  	0.002237 
2910.583344  	0.002250 
2912.512160  	0.002564 
2914.440976  	0.003269 
2916.369792  	0.003666 
2918.298608  	0.003681 
2920.227424  	0.003725 
2922.156240  	0.003947 
2924.085056  	0.004422 
2926.013872  	0.004877 
2927.942688  	0.005118 
2929.871504  	0.005332 
2931.800320  	0.005658 
2933.729136  	0.005793 
2935.657952  	0.005826 
2937.586768  	0.006036 
2939.515584  	0.006076 
2941.444400  	0.006022 
2943.373216  	0.006090 
2945.302032  	0.006165 
2947.230848  	0.006195 
2949.159664  	0.006033 
2951.088480  	0.005631 
2953.017296  	0.005416 
2954.946112  	0.005092 
2956.874928  	0.004695 
2958.803744  	0.004311 
2960.732560  	0.004003 
2962.661376  	0.003782 
2964.590192  	0.003436 
2966.519008  	0.002831 
2968.447824  	0.002143 
2970.376640  	0.001924 
2972.305456  	0.001917 
2974.234272  	0.002000 
2976.163088  	0.002068 
2978.091904  	0.001936 
2980.020720  	0.001834 
2981.949536  	0.002034 
2983.878352  	0.002055 
2985.807168  	0.001531 
2987.735984  	0.001039 
2989.664800  	0.001300 
2991.593616  	0.002619 
2993.522432  	0.003473 
2995.451248  	0.003791 
2997.380064  	0.004136 
2999.308880  	0.004538 
3001.237696  	0.005013 
3003.166512  	0.005615 
3005.095328  	0.006327 
3007.024144  	0.006958 
3008.952960  	0.007543 
3010.881776  	0.008186 
3012.810592  	0.008840 
3014.739408  	0.009526 
3016.668224  	0.009763 
3018.597040  	0.010051 
3020.525856  	0.010620 
3022.454672  	0.011187 
3024.383488  	0.011641 
3026.312304  	0.011941 
3028.241120  	0.012216 
3030.169936  	0.012573 
3032.098752  	0.012971 
3034.027568  	0.013181 
3035.956384  	0.013408 
3037.885200  	0.013804 
3039.814016  	0.014056 
3041.742832  	0.014161 
3043.671648  	0.014332 
3045.600464  	0.014621 
3047.529280  	0.014809 
3049.458096  	0.014821 
3051.386912  	0.014594 
3053.315728  	0.014591 
3055.244544  	0.014939 
3057.173360  	0.015184 
3059.102176  	0.015295 
3061.030992  	0.015348 
3062.959808  	0.015564 
3064.888624  	0.015853 
3066.817440  	0.015989 
3068.746256  	0.016133 
3070.675072  	0.016347 
3072.603888  	0.016534 
3074.532704  	0.016549 
3076.461520  	0.016567 
3078.390336  	0.016679 
3080.319152  	0.016859 
3082.247968  	0.017086 
3084.176784  	0.017182 
3086.105600  	0.017322 
3088.034416  	0.017467 
3089.963232  	0.017553 
3091.892048  	0.017747 
3093.820864  	0.017704 
3095.749680  	0.017751 
3097.678496  	0.018002 
3099.607312  	0.018298 
3101.536128  	0.018615 
3103.464944  	0.018869 
3105.393760  	0.018793 
3107.322576  	0.018790 
3109.251392  	0.018961 
3111.180208  	0.019120 
3113.109024  	0.019401 
3115.037840  	0.019480 
3116.966656  	0.019477 
3118.895472  	0.019569 
3120.824288  	0.019747 
3122.753104  	0.019821 
3124.681920  	0.019812 
3126.610736  	0.019850 
3128.539552  	0.019935 
3130.468368  	0.020150 
3132.397184  	0.020344 
3134.326000  	0.020473 
3136.254816  	0.020501 
3138.183632  	0.020504 
3140.112448  	0.020531 
3142.041264  	0.020741 
3143.970080  	0.021065 
3145.898896  	0.021090 
3147.827712  	0.021135 
3149.756528  	0.021279 
3151.685344  	0.021286 
3153.614160  	0.021337 
3155.542976  	0.021546 
3157.471792  	0.021840 
3159.400608  	0.022055 
3161.329424  	0.022045 
3163.258240  	0.021928 
3165.187056  	0.022061 
3167.115872  	0.022139 
3169.044688  	0.022309 
3170.973504  	0.022354 
3172.902320  	0.022311 
3174.831136  	0.022542 
3176.759952  	0.022739 
3178.688768  	0.022840 
3180.617584  	0.023105 
3182.546400  	0.023166 
3184.475216  	0.023237 
3186.404032  	0.023414 
3188.332848  	0.023489 
3190.261664  	0.023424 
3192.190480  	0.023306 
3194.119296  	0.023386 
3196.048112  	0.023401 
3197.976928  	0.023419 
3199.905744  	0.023375 
3201.834560  	0.023382 
3203.763376  	0.023506 
3205.692192  	0.023484 
3207.621008  	0.023396 
3209.549824  	0.023325 
3211.478640  	0.023389 
3213.407456  	0.023422 
3215.336272  	0.023513 
3217.265088  	0.023460 
3219.193904  	0.023319 
3221.122720  	0.023426 
3223.051536  	0.023328 
3224.980352  	0.023084 
3226.909168  	0.022979 
3228.837984  	0.022991 
3230.766800  	0.023004 
3232.695616  	0.023033 
3234.624432  	0.022978 
3236.553248  	0.022925 
3238.482064  	0.022992 
3240.410880  	0.022920 
3242.339696  	0.022879 
3244.268512  	0.022928 
3246.197328  	0.023059 
3248.126144  	0.023087 
3250.054960  	0.023154 
3251.983776  	0.023070 
3253.912592  	0.023134 
3255.841408  	0.023127 
3257.770224  	0.022970 
3259.699040  	0.023161 
3261.627856  	0.023250 
3263.556672  	0.023318 
3265.485488  	0.023595 
3267.414304  	0.023381 
3269.343120  	0.023223 
3271.271936  	0.023305 
3273.200752  	0.023461 
3275.129568  	0.023596 
3277.058384  	0.023753 
3278.987200  	0.023801 
3280.916016  	0.023667 
3282.844832  	0.023714 
3284.773648  	0.023925 
3286.702464  	0.024006 
3288.631280  	0.023886 
3290.560096  	0.023867 
3292.488912  	0.023997 
3294.417728  	0.024078 
3296.346544  	0.024323 
3298.275360  	0.024438 
3300.204176  	0.024560 
3302.132992  	0.024785 
3304.061808  	0.025008 
3305.990624  	0.025157 
3307.919440  	0.025293 
3309.848256  	0.025353 
3311.777072  	0.025154 
3313.705888  	0.025247 
3315.634704  	0.025525 
3317.563520  	0.025640 
3319.492336  	0.025882 
3321.421152  	0.026076 
3323.349968  	0.026022 
3325.278784  	0.025940 
3327.207600  	0.026154 
3329.136416  	0.026203 
3331.065232  	0.026068 
3332.994048  	0.026021 
3334.922864  	0.026223 
3336.851680  	0.026338 
3338.780496  	0.026299 
3340.709312  	0.026304 
3342.638128  	0.026410 
3344.566944  	0.026484 
3346.495760  	0.026562 
3348.424576  	0.026319 
3350.353392  	0.026141 
3352.282208  	0.026009 
3354.211024  	0.026045 
3356.139840  	0.026162 
3358.068656  	0.026230 
3359.997472  	0.026315 
3361.926288  	0.026193 
3363.855104  	0.025845 
3365.783920  	0.025671 
3367.712736  	0.025494 
3369.641552  	0.025398 
3371.570368  	0.025373 
3373.499184  	0.025364 
3375.428000  	0.025246 
3377.356816  	0.025071 
3379.285632  	0.024898 
3381.214448  	0.024739 
3383.143264  	0.024576 
3385.072080  	0.024565 
3387.000896  	0.024359 
3388.929712  	0.024077 
3390.858528  	0.023832 
3392.787344  	0.023857 
3394.716160  	0.023935 
3396.644976  	0.024085 
3398.573792  	0.024157 
3400.502608  	0.024029 
3402.431424  	0.023769 
3404.360240  	0.023669 
3406.289056  	0.023525 
3408.217872  	0.023294 
3410.146688  	0.023135 
3412.075504  	0.023047 
3414.004320  	0.022945 
3415.933136  	0.022841 
3417.861952  	0.022573 
3419.790768  	0.022491 
3421.719584  	0.022592 
3423.648400  	0.022427 
3425.577216  	0.022263 
3427.506032  	0.022297 
3429.434848  	0.022228 
3431.363664  	0.022051 
3433.292480  	0.021759 
3435.221296  	0.021478 
3437.150112  	0.021478 
3439.078928  	0.021416 
3441.007744  	0.021172 
3442.936560  	0.021083 
3444.865376  	0.020803 
3446.794192  	0.020591 
3448.723008  	0.020574 
3450.651824  	0.020438 
3452.580640  	0.020261 
3454.509456  	0.020023 
3456.438272  	0.019940 
3458.367088  	0.019748 
3460.295904  	0.019546 
3462.224720  	0.019479 
3464.153536  	0.019265 
3466.082352  	0.019000 
3468.011168  	0.018772 
3469.939984  	0.018542 
3471.868800  	0.018405 
3473.797616  	0.018324 
3475.726432  	0.018109 
3477.655248  	0.017830 
3479.584064  	0.017695 
3481.512880  	0.017635 
3483.441696  	0.017242 
3485.370512  	0.016768 
3487.299328  	0.016706 
3489.228144  	0.016683 
3491.156960  	0.016432 
3493.085776  	0.016295 
3495.014592  	0.016081 
3496.943408  	0.015817 
3498.872224  	0.015728 
3500.801040  	0.015786 
3502.729856  	0.015666 
3504.658672  	0.015418 
3506.587488  	0.015110 
3508.516304  	0.014679 
3510.445120  	0.014523 
3512.373936  	0.014717 
3514.302752  	0.014568 
3516.231568  	0.014216 
3518.160384  	0.014080 
3520.089200  	0.014038 
3522.018016  	0.013927 
3523.946832  	0.013566 
3525.875648  	0.013143 
3527.804464  	0.013113 
3529.733280  	0.012938 
3531.662096  	0.012659 
3533.590912  	0.012574 
3535.519728  	0.012703 
3537.448544  	0.012661 
3539.377360  	0.012323 
3541.306176  	0.011985 
3543.234992  	0.012005 
3545.163808  	0.012162 
3547.092624  	0.011971 
3549.021440  	0.011566 
3550.950256  	0.011227 
3552.879072  	0.011174 
3554.807888  	0.011258 
3556.736704  	0.011250 
3558.665520  	0.011006 
3560.594336  	0.010612 
3562.523152  	0.010278 
3564.451968  	0.010041 
3566.380784  	0.010350 
3568.309600  	0.010786 
3570.238416  	0.010231 
3572.167232  	0.009413 
3574.096048  	0.009207 
3576.024864  	0.009401 
3577.953680  	0.009103 
3579.882496  	0.008665 
3581.811312  	0.008552 
3583.740128  	0.008443 
3585.668944  	0.008215 
3587.597760  	0.008634 
3589.526576  	0.008584 
3591.455392  	0.007987 
3593.384208  	0.007653 
3595.313024  	0.007544 
3597.241840  	0.007594 
3599.170656  	0.007173 
3601.099472  	0.006896 
3603.028288  	0.006803 
3604.957104  	0.006426 
3606.885920  	0.006057 
3608.814736  	0.006150 
3610.743552  	0.005953 
3612.672368  	0.005546 
3614.601184  	0.005201 
3616.530000  	0.004795 
3618.458816  	0.004866 
3620.387632  	0.004901 
3622.316448  	0.004136 
3624.245264  	0.003783 
3626.174080  	0.003174 
3628.102896  	0.003054 
3630.031712  	0.003954 
3631.960528  	0.003125 
3633.889344  	0.002759 
3635.818160  	0.002463 
3637.746976  	0.002361 
3639.675792  	0.002043 
3641.604608  	0.001527 
3643.533424  	0.001063 
3645.462240  	0.000257 
3647.391056  	-0.000129 
3649.319872  	0.000443 
3651.248688  	0.001032 
3653.177504  	0.000092 
3655.106320  	-0.000661 
3657.035136  	-0.000744 
3658.963952  	-0.000821 
3660.892768  	-0.001190 
3662.821584  	-0.001509 
3664.750400  	-0.001587 
3666.679216  	-0.002086 
3668.608032  	-0.002428 
3670.536848  	-0.001663 
3672.465664  	-0.002100 
3674.394480  	-0.002782 
3676.323296  	-0.001925 
3678.252112  	-0.001631 
3680.180928  	-0.001360 
3682.109744  	-0.001742 
3684.038560  	-0.002225 
3685.967376  	-0.002599 
3687.896192  	-0.002279 
3689.825008  	-0.001661 
3691.753824  	-0.001718 
3693.682640  	-0.001992 
3695.611456  	-0.001855 
3697.540272  	-0.001566 
3699.469088  	-0.001615 
3701.397904  	-0.001080 
3703.326720  	-0.000734 
3705.255536  	-0.000809 
3707.184352  	-0.000801 
3709.113168  	-0.000937 
3711.041984  	-0.000719 
3712.970800  	-0.000008 
3714.899616  	0.000012 
3716.828432  	-0.000177 
3718.757248  	-0.000298 
3720.686064  	-0.000274 
3722.614880  	0.000151 
3724.543696  	0.000071 
3726.472512  	0.000052 
3728.401328  	-0.000039 
3730.330144  	-0.000708 
3732.258960  	-0.000868 
3734.187776  	-0.000654 
3736.116592  	0.000233 
3738.045408  	0.000302 
3739.974224  	0.000025 
3741.903040  	-0.000537 
3743.831856  	0.000014 
3745.760672  	0.000881 
3747.689488  	-0.000331 
3749.618304  	-0.000505 
3751.547120  	0.000089 
3753.475936  	0.000541 
3755.404752  	0.000134 
3757.333568  	-0.000032 
3759.262384  	0.000090 
3761.191200  	0.000369 
3763.120016  	0.000041 
3765.048832  	0.000004 
3766.977648  	-0.000161 
3768.906464  	-0.000017 
3770.835280  	0.000792 
3772.764096  	0.000544 
3774.692912  	0.000124 
3776.621728  	-0.000004 
3778.550544  	0.000245 
3780.479360  	0.000498 
3782.408176  	0.000104 
3784.336992  	0.000067 
3786.265808  	0.000278 
3788.194624  	0.000221 
3790.123440  	0.000190 
3792.052256  	0.000238 
3793.981072  	0.000173 
3795.909888  	0.000217 
3797.838704  	-0.000154 
3799.767520  	-0.000784 
3801.696336  	0.000037 
3803.625152  	0.000152 
3805.553968  	-0.000303 
3807.482784  	0.000187 
3809.411600  	0.000229 
3811.340416  	0.000067 
3813.269232  	-0.000424 
3815.198048  	-0.000362 
3817.126864  	-0.000088 
3819.055680  	-0.000746 
3820.984496  	-0.000085 
3822.913312  	0.000497 
3824.842128  	0.000029 
3826.770944  	0.000044 
3828.699760  	-0.000347 
3830.628576  	-0.000506 
3832.557392  	-0.000349 
3834.486208  	-0.000487 
3836.415024  	-0.000560 
3838.343840  	0.000019 
3840.272656  	0.000425 
3842.201472  	0.000301 
3844.130288  	0.000263 
3846.059104  	0.000119 
3847.987920  	-0.000285 
3849.916736  	-0.000559 
3851.845552  	-0.000579 
3853.774368  	0.000657 
3855.703184  	0.000651 
3857.632000  	0.000203 
3859.560816  	-0.000185 
3861.489632  	-0.000375 
3863.418448  	-0.000236 
3865.347264  	0.000073 
3867.276080  	-0.000514 
3869.204896  	-0.000371 
3871.133712  	0.000278 
3873.062528  	0.000184 
3874.991344  	0.000540 
3876.920160  	0.000015 
3878.848976  	-0.000190 
3880.777792  	0.000289 
3882.706608  	0.000013 
3884.635424  	-0.000027 
3886.564240  	0.000718 
3888.493056  	0.000247 
3890.421872  	0.000219 
3892.350688  	0.000473 
3894.279504  	0.000167 
3896.208320  	-0.000305 
3898.137136  	-0.000333 
3900.065952  	0.000051 
3901.994768  	0.000096 
3903.923584  	0.000350 
3905.852400  	0.000587 
3907.781216  	0.000265 
3909.710032  	0.000129 
3911.638848  	0.000307 
3913.567664  	-0.000001 
3915.496480  	-0.000204 
3917.425296  	0.000118 
3919.354112  	0.000396 
3921.282928  	0.000410 
3923.211744  	0.000190 
3925.140560  	0.000396 
3927.069376  	0.000306 
3928.998192  	0.000038 
3930.927008  	0.000041 
3932.855824  	0.000222 
3934.784640  	0.000142 
3936.713456  	0.000075 
3938.642272  	0.000102 
3940.571088  	0.000153 
3942.499904  	0.000245 
3944.428720  	0.000201 
3946.357536  	0.000071 
3948.286352  	0.000156 
3950.215168  	0.000255 
3952.143984  	0.000229 
3954.072800  	0.000212 
3956.001616  	0.000291 
3957.930432  	0.000272 
3959.859248  	0.000299 
3961.788064  	0.000220 
3963.716880  	0.000115 
3965.645696  	-0.000069 
3967.574512  	0.000023 
3969.503328  	0.000162 
3971.432144  	0.000210 
3973.360960  	0.000157 
3975.289776  	0.000202 
3977.218592  	0.000135 
3979.147408  	0.000094 
3981.076224  	0.000179 
3983.005040  	0.000264 
3984.933856  	0.000155 
3986.862672  	0.000012 
3988.791488  	-0.000011 
3990.720304  	0.000160 
3992.649120  	0.000169 
3994.577936  	0.000113 
3996.506752  	0.000125 
3998.435568  	0.000101 
4000.364384  	0.000089 