##TITLE=No Description
##DATA TYPE=INFRARED SPECTRUM
##XUNITS=1/CM
##YUNITS=Abs
399.264912  	0.212194 
401.193728  	0.205229 
403.122544  	0.204080 
405.051360  	0.202067 
406.980176  	0.205163 
408.908992  	0.201636 
410.837808  	0.199956 
412.766624  	0.199954 
414.695440  	0.198185 
416.624256  	0.194430 
418.553072  	0.194341 
420.481888  	0.190429 
422.410704  	0.191788 
424.339520  	0.194014 
426.268336  	0.196102 
428.197152  	0.190397 
430.125968  	0.189493 
432.054784  	0.187214 
433.983600  	0.189796 
435.912416  	0.189099 
437.841232  	0.184769 
439.770048  	0.182320 
441.698864  	0.182681 
443.627680  	0.180631 
445.556496  	0.179033 
447.485312  	0.177969 
449.414128  	0.176841 
451.342944  	0.174646 
453.271760  	0.178875 
455.200576  	0.183073 
457.129392  	0.184056 
459.058208  	0.180273 
460.987024  	0.176904 
462.915840  	0.174568 
464.844656  	0.178024 
466.773472  	0.179919 
468.702288  	0.179798 
470.631104  	0.180106 
472.559920  	0.181751 
474.488736  	0.179027 
476.417552  	0.181094 
478.346368  	0.179192 
480.275184  	0.176806 
482.204000  	0.176693 
484.132816  	0.178773 
486.061632  	0.178604 
487.990448  	0.179074 
489.919264  	0.180015 
491.848080  	0.182607 
493.776896  	0.183396 
495.705712  	0.184867 
497.634528  	0.181903 
499.563344  	0.180692 
501.492160  	0.182059 
503.420976  	0.183182 
505.349792  	0.183298 
507.278608  	0.185125 
509.207424  	0.185156 
511.136240  	0.185468 
513.065056  	0.186859 
514.993872  	0.187492 
516.922688  	0.186519 
518.851504  	0.189006 
520.780320  	0.189370 
522.709136  	0.189032 
524.637952  	0.188942 
526.566768  	0.190153 
528.495584  	0.190172 
530.424400  	0.188704 
532.353216  	0.186701 
534.282032  	0.187632 
536.210848  	0.189299 
538.139664  	0.188521 
540.068480  	0.186797 
541.997296  	0.185997 
543.926112  	0.185924 
545.854928  	0.186338 
547.783744  	0.186372 
549.712560  	0.186761 
551.641376  	0.186199 
553.570192  	0.185515 
555.499008  	0.184832 
557.427824  	0.185197 
559.356640  	0.184945 
561.285456  	0.184241 
563.214272  	0.183975 
565.143088  	0.183673 
567.071904  	0.182492 
569.000720  	0.182407 
570.929536  	0.181189 
572.858352  	0.181346 
574.787168  	0.181170 
576.715984  	0.180040 
578.644800  	0.179224 
580.573616  	0.178843 
582.502432  	0.178331 
584.431248  	0.178479 
586.360064  	0.177913 
588.288880  	0.177563 
590.217696  	0.177233 
592.146512  	0.176733 
594.075328  	0.175498 
596.004144  	0.175068 
597.932960  	0.174891 
599.861776  	0.174843 
601.790592  	0.174091 
603.719408  	0.174081 
605.648224  	0.173840 
607.577040  	0.173772 
609.505856  	0.173803 
611.434672  	0.173788 
613.363488  	0.173294 
615.292304  	0.172769 
617.221120  	0.171875 
619.149936  	0.171489 
621.078752  	0.170789 
623.007568  	0.170519 
624.936384  	0.170463 
626.865200  	0.170303 
628.794016  	0.169643 
630.722832  	0.169642 
632.651648  	0.169482 
634.580464  	0.168919 
636.509280  	0.168284 
638.438096  	0.168262 
640.366912  	0.168263 
642.295728  	0.168145 
644.224544  	0.167067 
646.153360  	0.166097 
648.082176  	0.164683 
650.010992  	0.163862 
651.939808  	0.162892 
653.868624  	0.162041 
655.797440  	0.160867 
657.726256  	0.160556 
659.655072  	0.159822 
661.583888  	0.158632 
663.512704  	0.157421 
665.441520  	0.156240 
667.370336  	0.154070 
669.299152  	0.153745 
671.227968  	0.153092 
673.156784  	0.151832 
675.085600  	0.150953 
677.014416  	0.150049 
678.943232  	0.149118 
680.872048  	0.148653 
682.800864  	0.147932 
684.729680  	0.147943 
686.658496  	0.147250 
688.587312  	0.146704 
690.516128  	0.146165 
692.444944  	0.145475 
694.373760  	0.144104 
696.302576  	0.143648 
698.231392  	0.143096 
700.160208  	0.142148 
702.089024  	0.140909 
704.017840  	0.139788 
705.946656  	0.138639 
707.875472  	0.137764 
709.804288  	0.137021 
711.733104  	0.136091 
713.661920  	0.135140 
715.590736  	0.134375 
717.519552  	0.133558 
719.448368  	0.132804 
721.377184  	0.132205 
723.306000  	0.131873 
725.234816  	0.131690 
727.163632  	0.131671 
729.092448  	0.130833 
731.021264  	0.130002 
732.950080  	0.129224 
734.878896  	0.128515 
736.807712  	0.127237 
738.736528  	0.126267 
740.665344  	0.125443 
742.594160  	0.124840 
744.522976  	0.123805 
746.451792  	0.122966 
748.380608  	0.122290 
750.309424  	0.121573 
752.238240  	0.120747 
754.167056  	0.120377 
756.095872  	0.119561 
758.024688  	0.118883 
759.953504  	0.118221 
761.882320  	0.117422 
763.811136  	0.116654 
765.739952  	0.116049 
767.668768  	0.115267 
769.597584  	0.114422 
771.526400  	0.113808 
773.455216  	0.113407 
775.384032  	0.112898 
777.312848  	0.112949 
779.241664  	0.113167 
781.170480  	0.113107 
783.099296  	0.112030 
785.028112  	0.110819 
786.956928  	0.109194 
788.885744  	0.107518 
790.814560  	0.106189 
792.743376  	0.105141 
794.672192  	0.104041 
796.601008  	0.102957 
798.529824  	0.101820 
800.458640  	0.100795 
802.387456  	0.099420 
804.316272  	0.098185 
806.245088  	0.097244 
808.173904  	0.096175 
810.102720  	0.095214 
812.031536  	0.094193 
813.960352  	0.093332 
815.889168  	0.092727 
817.817984  	0.091721 
819.746800  	0.090770 
821.675616  	0.089876 
823.604432  	0.089242 
825.533248  	0.088262 
827.462064  	0.087303 
829.390880  	0.086583 
831.319696  	0.085511 
833.248512  	0.084364 
835.177328  	0.083795 
837.106144  	0.082910 
839.034960  	0.081683 
840.963776  	0.080384 
842.892592  	0.079435 
844.821408  	0.078350 
846.750224  	0.077115 
848.679040  	0.076320 
850.607856  	0.075540 
852.536672  	0.074348 
854.465488  	0.073395 
856.394304  	0.072260 
858.323120  	0.071384 
860.251936  	0.070481 
862.180752  	0.069457 
864.109568  	0.068197 
866.038384  	0.067307 
867.967200  	0.066535 
869.896016  	0.065985 
871.824832  	0.065252 
873.753648  	0.064740 
875.682464  	0.064437 
877.611280  	0.063747 
879.540096  	0.063009 
881.468912  	0.062864 
883.397728  	0.062644 
885.326544  	0.062522 
887.255360  	0.062151 
889.184176  	0.061318 
891.112992  	0.060304 
893.041808  	0.059931 
894.970624  	0.059499 
896.899440  	0.058502 
898.828256  	0.057656 
900.757072  	0.057278 
902.685888  	0.057022 
904.614704  	0.056604 
906.543520  	0.056364 
908.472336  	0.056470 
910.401152  	0.056591 
912.329968  	0.056805 
914.258784  	0.057294 
916.187600  	0.057689 
918.116416  	0.057586 
920.045232  	0.057318 
921.974048  	0.056863 
923.902864  	0.056381 
925.831680  	0.055888 
927.760496  	0.055471 
929.689312  	0.055171 
931.618128  	0.054974 
933.546944  	0.054617 
935.475760  	0.054149 
937.404576  	0.053699 
939.333392  	0.053328 
941.262208  	0.053121 
943.191024  	0.053156 
945.119840  	0.053235 
947.048656  	0.053226 
948.977472  	0.053443 
950.906288  	0.053787 
952.835104  	0.054129 
954.763920  	0.054592 
956.692736  	0.054806 
958.621552  	0.055004 
960.550368  	0.054880 
962.479184  	0.054465 
964.408000  	0.053719 
966.336816  	0.052634 
968.265632  	0.051054 
970.194448  	0.049273 
972.123264  	0.047337 
974.052080  	0.045205 
975.980896  	0.043115 
977.909712  	0.040971 
979.838528  	0.039141 
981.767344  	0.037462 
983.696160  	0.036148 
985.624976  	0.035154 
987.553792  	0.034385 
989.482608  	0.033855 
991.411424  	0.033652 
993.340240  	0.033594 
995.269056  	0.033955 
997.197872  	0.034612 
999.126688  	0.035058 
1001.055504  	0.035221 
1002.984320  	0.035280 
1004.913136  	0.035582 
1006.841952  	0.036054 
1008.770768  	0.036436 
1010.699584  	0.036509 
1012.628400  	0.036420 
1014.557216  	0.036256 
1016.486032  	0.036120 
1018.414848  	0.035958 
1020.343664  	0.035538 
1022.272480  	0.035168 
1024.201296  	0.034561 
1026.130112  	0.032754 
1028.058928  	0.031759 
1029.987744  	0.032624 
1031.916560  	0.032369 
1033.845376  	0.031335 
1035.774192  	0.030099 
1037.703008  	0.029152 
1039.631824  	0.029225 
1041.560640  	0.029249 
1043.489456  	0.029334 
1045.418272  	0.030013 
1047.347088  	0.031399 
1049.275904  	0.033016 
1051.204720  	0.034713 
1053.133536  	0.036517 
1055.062352  	0.038259 
1056.991168  	0.039481 
1058.919984  	0.041208 
1060.848800  	0.043124 
1062.777616  	0.043082 
1064.706432  	0.041035 
1066.635248  	0.039951 
1068.564064  	0.041299 
1070.492880  	0.041431 
1072.421696  	0.040247 
1074.350512  	0.038967 
1076.279328  	0.038041 
1078.208144  	0.037911 
1080.136960  	0.038525 
1082.065776  	0.039132 
1083.994592  	0.039443 
1085.923408  	0.040105 
1087.852224  	0.040723 
1089.781040  	0.041267 
1091.709856  	0.041961 
1093.638672  	0.041813 
1095.567488  	0.040564 
1097.496304  	0.039190 
1099.425120  	0.037948 
1101.353936  	0.036548 
1103.282752  	0.035152 
1105.211568  	0.033556 
1107.140384  	0.032197 
1109.069200  	0.031171 
1110.998016  	0.029873 
1112.926832  	0.028518 
1114.855648  	0.027514 
1116.784464  	0.026401 
1118.713280  	0.025153 
1120.642096  	0.023912 
1122.570912  	0.022556 
1124.499728  	0.021287 
1126.428544  	0.020300 
1128.357360  	0.019384 
1130.286176  	0.018296 
1132.214992  	0.017467 
1134.143808  	0.016658 
1136.072624  	0.015786 
1138.001440  	0.015254 
1139.930256  	0.014648 
1141.859072  	0.013846 
1143.787888  	0.013239 
1145.716704  	0.012574 
1147.645520  	0.011921 
1149.574336  	0.011504 
1151.503152  	0.011122 
1153.431968  	0.010989 
1155.360784  	0.010770 
1157.289600  	0.010586 
1159.218416  	0.010494 
1161.147232  	0.010512 
1163.076048  	0.010601 
1165.004864  	0.010739 
1166.933680  	0.010926 
1168.862496  	0.011136 
1170.791312  	0.011367 
1172.720128  	0.011650 
1174.648944  	0.011947 
1176.577760  	0.012216 
1178.506576  	0.012597 
1180.435392  	0.012747 
1182.364208  	0.013116 
1184.293024  	0.013649 
1186.221840  	0.014005 
1188.150656  	0.014399 
1190.079472  	0.014816 
1192.008288  	0.015517 
1193.937104  	0.016228 
1195.865920  	0.017053 
1197.794736  	0.017717 
1199.723552  	0.018634 
1201.652368  	0.019790 
1203.581184  	0.020930 
1205.510000  	0.022016 
1207.438816  	0.023306 
1209.367632  	0.024358 
1211.296448  	0.024836 
1213.225264  	0.025402 
1215.154080  	0.026018 
1217.082896  	0.026511 
1219.011712  	0.027065 
1220.940528  	0.027486 
1222.869344  	0.027715 
1224.798160  	0.027903 
1226.726976  	0.028008 
1228.655792  	0.028159 
1230.584608  	0.028343 
1232.513424  	0.028537 
1234.442240  	0.028729 
1236.371056  	0.028590 
1238.299872  	0.028344 
1240.228688  	0.027253 
1242.157504  	0.026167 
1244.086320  	0.025757 
1246.015136  	0.024823 
1247.943952  	0.023355 
1249.872768  	0.021884 
1251.801584  	0.020872 
1253.730400  	0.019816 
1255.659216  	0.018880 
1257.588032  	0.017908 
1259.516848  	0.016986 
1261.445664  	0.016288 
1263.374480  	0.015677 
1265.303296  	0.015103 
1267.232112  	0.014643 
1269.160928  	0.014372 
1271.089744  	0.014093 
1273.018560  	0.013951 
1274.947376  	0.013976 
1276.876192  	0.013959 
1278.805008  	0.013921 
1280.733824  	0.013575 
1282.662640  	0.013069 
1284.591456  	0.012610 
1286.520272  	0.012068 
1288.449088  	0.011577 
1290.377904  	0.011300 
1292.306720  	0.010932 
1294.235536  	0.010407 
1296.164352  	0.009776 
1298.093168  	0.009119 
1300.021984  	0.008550 
1301.950800  	0.007965 
1303.879616  	0.007334 
1305.808432  	0.006854 
1307.737248  	0.006512 
1309.666064  	0.006243 
1311.594880  	0.006001 
1313.523696  	0.005803 
1315.452512  	0.005707 
1317.381328  	0.005808 
1319.310144  	0.005829 
1321.238960  	0.005833 
1323.167776  	0.005969 
1325.096592  	0.006040 
1327.025408  	0.006067 
1328.954224  	0.006061 
1330.883040  	0.005919 
1332.811856  	0.005736 
1334.740672  	0.005445 
1336.669488  	0.005342 
1338.598304  	0.005339 
1340.527120  	0.005106 
1342.455936  	0.004846 
1344.384752  	0.004814 
1346.313568  	0.004850 
1348.242384  	0.005053 
1350.171200  	0.005260 
1352.100016  	0.005463 
1354.028832  	0.005748 
1355.957648  	0.006109 
1357.886464  	0.006435 
1359.815280  	0.006632 
1361.744096  	0.006785 
1363.672912  	0.006947 
1365.601728  	0.006914 
1367.530544  	0.006663 
1369.459360  	0.006272 
1371.388176  	0.005781 
1373.316992  	0.005283 
1375.245808  	0.004497 
1377.174624  	0.003685 
1379.103440  	0.003037 
1381.032256  	0.002514 
1382.961072  	0.002201 
1384.889888  	0.002181 
1386.818704  	0.002426 
1388.747520  	0.002456 
1390.676336  	0.001714 
1392.605152  	0.000039 
1394.533968  	-0.000505 
1396.462784  	0.001219 
1398.391600  	0.001912 
1400.320416  	0.001668 
1402.249232  	0.001305 
1404.178048  	0.001346 
1406.106864  	0.001485 
1408.035680  	0.001718 
1409.964496  	0.002179 
1411.893312  	0.003025 
1413.822128  	0.003924 
1415.750944  	0.004696 
1417.679760  	0.005300 
1419.608576  	0.005796 
1421.537392  	0.005894 
1423.466208  	0.005991 
1425.395024  	0.005899 
1427.323840  	0.005621 
1429.252656  	0.005403 
1431.181472  	0.005303 
1433.110288  	0.005209 
1435.039104  	0.005156 
1436.967920  	0.005258 
1438.896736  	0.005346 
1440.825552  	0.005406 
1442.754368  	0.005362 
1444.683184  	0.005291 
1446.612000  	0.005234 
1448.540816  	0.005043 
1450.469632  	0.005076 
1452.398448  	0.005276 
1454.327264  	0.005454 
1456.256080  	0.005690 
1458.184896  	0.006024 
1460.113712  	0.006158 
1462.042528  	0.006220 
1463.971344  	0.006302 
1465.900160  	0.006809 
1467.828976  	0.007352 
1469.757792  	0.007811 
1471.686608  	0.008319 
1473.615424  	0.009308 
1475.544240  	0.010007 
1477.473056  	0.010512 
1479.401872  	0.010738 
1481.330688  	0.010851 
1483.259504  	0.010925 
1485.188320  	0.010947 
1487.117136  	0.010667 
1489.045952  	0.010418 
1490.974768  	0.009835 
1492.903584  	0.009251 
1494.832400  	0.008648 
1496.761216  	0.007929 
1498.690032  	0.007310 
1500.618848  	0.006977 
1502.547664  	0.006559 
1504.476480  	0.005784 
1506.405296  	0.005283 
1508.334112  	0.005878 
1510.262928  	0.005791 
1512.191744  	0.005439 
1514.120560  	0.005157 
1516.049376  	0.005076 
1517.978192  	0.005141 
1519.907008  	0.005161 
1521.835824  	0.005426 
1523.764640  	0.006089 
1525.693456  	0.006670 
1527.622272  	0.007131 
1529.551088  	0.007321 
1531.479904  	0.007394 
1533.408720  	0.007228 
1535.337536  	0.007152 
1537.266352  	0.006668 
1539.195168  	0.005578 
1541.123984  	0.005141 
1543.052800  	0.005522 
1544.981616  	0.005434 
1546.910432  	0.005235 
1548.839248  	0.005199 
1550.768064  	0.005205 
1552.696880  	0.005076 
1554.625696  	0.005069 
1556.554512  	0.004785 
1558.483328  	0.004766 
1560.412144  	0.005686 
1562.340960  	0.006257 
1564.269776  	0.006675 
1566.198592  	0.007393 
1568.127408  	0.007801 
1570.056224  	0.008684 
1571.985040  	0.009554 
1573.913856  	0.009784 
1575.842672  	0.009944 
1577.771488  	0.010711 
1579.700304  	0.010887 
1581.629120  	0.010867 
1583.557936  	0.010959 
1585.486752  	0.011191 
1587.415568  	0.011618 
1589.344384  	0.012355 
1591.273200  	0.013137 
1593.202016  	0.014193 
1595.130832  	0.015123 
1597.059648  	0.015936 
1598.988464  	0.016529 
1600.917280  	0.017095 
1602.846096  	0.017473 
1604.774912  	0.017647 
1606.703728  	0.017541 
1608.632544  	0.017282 
1610.561360  	0.017077 
1612.490176  	0.017184 
1614.418992  	0.016810 
1616.347808  	0.016840 
1618.276624  	0.017953 
1620.205440  	0.018648 
1622.134256  	0.019131 
1624.063072  	0.020494 
1625.991888  	0.021631 
1627.920704  	0.023010 
1629.849520  	0.024672 
1631.778336  	0.025842 
1633.707152  	0.026516 
1635.635968  	0.028236 
1637.564784  	0.030286 
1639.493600  	0.031237 
1641.422416  	0.032170 
1643.351232  	0.032649 
1645.280048  	0.032668 
1647.208864  	0.033757 
1649.137680  	0.034167 
1651.066496  	0.033240 
1652.995312  	0.033534 
1654.924128  	0.034826 
1656.852944  	0.034096 
1658.781760  	0.033693 
1660.710576  	0.033317 
1662.639392  	0.033246 
1664.568208  	0.033211 
1666.497024  	0.032630 
1668.425840  	0.032211 
1670.354656  	0.032443 
1672.283472  	0.032306 
1674.212288  	0.032013 
1676.141104  	0.032796 
1678.069920  	0.033038 
1679.998736  	0.033207 
1681.927552  	0.032986 
1683.856368  	0.033169 
1685.785184  	0.034535 
1687.714000  	0.034290 
1689.642816  	0.034259 
1691.571632  	0.033975 
1693.500448  	0.033206 
1695.429264  	0.032745 
1697.358080  	0.032497 
1699.286896  	0.031271 
1701.215712  	0.031285 
1703.144528  	0.030174 
1705.073344  	0.028846 
1707.002160  	0.027755 
1708.930976  	0.026581 
1710.859792  	0.025325 
1712.788608  	0.023880 
1714.717424  	0.022207 
1716.646240  	0.020464 
1718.575056  	0.018974 
1720.503872  	0.017539 
1722.432688  	0.016200 
1724.361504  	0.014809 
1726.290320  	0.013341 
1728.219136  	0.011846 
1730.147952  	0.010544 
1732.076768  	0.009388 
1734.005584  	0.008087 
1735.934400  	0.006834 
1737.863216  	0.005976 
1739.792032  	0.004916 
1741.720848  	0.004376 
1743.649664  	0.003929 
1745.578480  	0.003319 
1747.507296  	0.002853 
1749.436112  	0.002484 
1751.364928  	0.002178 
1753.293744  	0.001901 
1755.222560  	0.001497 
1757.151376  	0.001278 
1759.080192  	0.001170 
1761.009008  	0.001074 
1762.937824  	0.000910 
1764.866640  	0.000850 
1766.795456  	0.000750 
1768.724272  	0.000681 
1770.653088  	0.000213 
1772.581904  	-0.000153 
1774.510720  	0.000049 
1776.439536  	0.000263 
1778.368352  	0.000402 
1780.297168  	0.000373 
1782.225984  	0.000090 
1784.154800  	0.000002 
1786.083616  	0.000001 
1788.012432  	0.000002 
1789.941248  	-0.000117 
1791.870064  	-0.000262 
1793.798880  	-0.000381 
1795.727696  	-0.000133 
1797.656512  	-0.000336 
1799.585328  	-0.000603 
1801.514144  	-0.000391 
1803.442960  	-0.000233 
1805.371776  	-0.000488 
1807.300592  	-0.000433 
1809.229408  	-0.000409 
1811.158224  	-0.000460 
1813.087040  	-0.000350 
1815.015856  	-0.000416 
1816.944672  	-0.000596 
1818.873488  	-0.000405 
1820.802304  	-0.000222 
1822.731120  	-0.000220 
1824.659936  	-0.000327 
1826.588752  	-0.000148 
1828.517568  	-0.000212 
1830.446384  	-0.000492 
1832.375200  	-0.000607 
1834.304016  	-0.000344 
1836.232832  	-0.000421 
1838.161648  	-0.000555 
1840.090464  	-0.000538 
1842.019280  	-0.000315 
1843.948096  	-0.000398 
1845.876912  	-0.000481 
1847.805728  	-0.000521 
1849.734544  	-0.000561 
1851.663360  	-0.000790 
1853.592176  	-0.000604 
1855.520992  	-0.000483 
1857.449808  	-0.000442 
1859.378624  	-0.000630 
1861.307440  	-0.000718 
1863.236256  	-0.000470 
1865.165072  	-0.000335 
1867.093888  	-0.000485 
1869.022704  	-0.000604 
1870.951520  	-0.000513 
1872.880336  	-0.000444 
1874.809152  	-0.000362 
1876.737968  	-0.000339 
1878.666784  	-0.000308 
1880.595600  	-0.000164 
1882.524416  	-0.000544 
1884.453232  	-0.000481 
1886.382048  	-0.000582 
1888.310864  	-0.000962 
1890.239680  	-0.001113 
1892.168496  	-0.001045 
1894.097312  	-0.000823 
1896.026128  	-0.000742 
1897.954944  	-0.000999 
1899.883760  	-0.000971 
1901.812576  	-0.001052 
1903.741392  	-0.000885 
1905.670208  	-0.000726 
1907.599024  	-0.000587 
1909.527840  	-0.000691 
1911.456656  	-0.001006 
1913.385472  	-0.000835 
1915.314288  	-0.000499 
1917.243104  	-0.000663 
1919.171920  	-0.000791 
1921.100736  	-0.001077 
1923.029552  	-0.001172 
1924.958368  	-0.001010 
1926.887184  	-0.000813 
1928.816000  	-0.000744 
1930.744816  	-0.000240 
1932.673632  	-0.000045 
1934.602448  	0.000043 
1936.531264  	0.000114 
1938.460080  	-0.000140 
1940.388896  	-0.000933 
1942.317712  	-0.001065 
1944.246528  	-0.000811 
1946.175344  	-0.000536 
1948.104160  	-0.000419 
1950.032976  	0.000155 
1951.961792  	-0.000068 
1953.890608  	-0.000389 
1955.819424  	-0.000290 
1957.748240  	-0.000230 
1959.677056  	-0.000422 
1961.605872  	-0.000246 
1963.534688  	-0.000044 
1965.463504  	-0.000787 
1967.392320  	-0.000916 
1969.321136  	-0.000253 
1971.249952  	-0.000275 
1973.178768  	-0.001901 
1975.107584  	-0.001251 
1977.036400  	0.001083 
1978.965216  	0.001953 
1980.894032  	0.001932 
1982.822848  	0.001236 
1984.751664  	0.000089 
1986.680480  	-0.000005 
1988.609296  	0.000753 
1990.538112  	0.000787 
1992.466928  	0.000130 
1994.395744  	-0.000890 
1996.324560  	-0.000837 
1998.253376  	-0.000807 
2000.182192  	-0.000495 
2002.111008  	-0.000247 
2004.039824  	-0.000404 
2005.968640  	0.000855 
2007.897456  	0.001890 
2009.826272  	0.001354 
2011.755088  	0.001607 
2013.683904  	0.000398 
2015.612720  	-0.000122 
2017.541536  	0.001096 
2019.470352  	0.001528 
2021.399168  	0.000947 
2023.327984  	0.000635 
2025.256800  	-0.000439 
2027.185616  	-0.002156 
2029.114432  	-0.001864 
2031.043248  	-0.000822 
2032.972064  	0.000089 
2034.900880  	0.000537 
2036.829696  	-0.000156 
2038.758512  	0.000437 
2040.687328  	0.000350 
2042.616144  	-0.000515 
2044.544960  	0.000205 
2046.473776  	0.000783 
2048.402592  	0.000696 
2050.331408  	0.000532 
2052.260224  	0.000130 
2054.189040  	0.000764 
2056.117856  	0.000124 
2058.046672  	-0.001105 
2059.975488  	-0.000660 
2061.904304  	-0.000028 
2063.833120  	0.000277 
2065.761936  	-0.000215 
2067.690752  	-0.001620 
2069.619568  	-0.001461 
2071.548384  	-0.000376 
2073.477200  	-0.000161 
2075.406016  	-0.000621 
2077.334832  	-0.001425 
2079.263648  	-0.001523 
2081.192464  	-0.001400 
2083.121280  	-0.000991 
2085.050096  	-0.000340 
2086.978912  	-0.000278 
2088.907728  	-0.000539 
2090.836544  	-0.000923 
2092.765360  	-0.001218 
2094.694176  	-0.001380 
2096.622992  	-0.000999 
2098.551808  	-0.001140 
2100.480624  	-0.001159 
2102.409440  	-0.000839 
2104.338256  	-0.000177 
2106.267072  	-0.000188 
2108.195888  	-0.000216 
2110.124704  	-0.000425 
2112.053520  	-0.000633 
2113.982336  	-0.000957 
2115.911152  	-0.001039 
2117.839968  	-0.000913 
2119.768784  	-0.001012 
2121.697600  	-0.001017 
2123.626416  	-0.000568 
2125.555232  	-0.000850 
2127.484048  	-0.001208 
2129.412864  	-0.001255 
2131.341680  	-0.001658 
2133.270496  	-0.001897 
2135.199312  	-0.001483 
2137.128128  	-0.001455 
2139.056944  	-0.001554 
2140.985760  	-0.001271 
2142.914576  	-0.000431 
2144.843392  	-0.000942 
2146.772208  	-0.001279 
2148.701024  	-0.001431 
2150.629840  	-0.001537 
2152.558656  	-0.001991 
2154.487472  	-0.002228 
2156.416288  	-0.001430 
2158.345104  	-0.001226 
2160.273920  	0.000470 
2162.202736  	0.001652 
2164.131552  	0.001629 
2166.060368  	0.001411 
2167.989184  	0.000593 
2169.918000  	0.000108 
2171.846816  	0.000026 
2173.775632  	0.000095 
2175.704448  	0.000242 
2177.633264  	0.000504 
2179.562080  	-0.000113 
2181.490896  	0.001017 
2183.419712  	0.002217 
2185.348528  	0.001140 
2187.277344  	-0.000199 
2189.206160  	-0.000110 
2191.134976  	0.000023 
2193.063792  	-0.000322 
2194.992608  	-0.000208 
2196.921424  	-0.000449 
2198.850240  	-0.000695 
2200.779056  	0.000238 
2202.707872  	0.000796 
2204.636688  	0.000521 
2206.565504  	-0.000121 
2208.494320  	-0.000557 
2210.423136  	-0.000434 
2212.351952  	0.000357 
2214.280768  	0.000694 
2216.209584  	0.000267 
2218.138400  	0.000081 
2220.067216  	0.000655 
2221.996032  	0.000654 
2223.924848  	0.000307 
2225.853664  	0.000420 
2227.782480  	0.000226 
2229.711296  	-0.000118 
2231.640112  	-0.000816 
2233.568928  	-0.001495 
2235.497744  	-0.001567 
2237.426560  	-0.001197 
2239.355376  	-0.001239 
2241.284192  	-0.001106 
2243.213008  	0.000059 
2245.141824  	-0.000254 
2247.070640  	-0.000835 
2248.999456  	-0.000939 
2250.928272  	-0.001324 
2252.857088  	-0.000774 
2254.785904  	-0.000385 
2256.714720  	-0.000934 
2258.643536  	-0.001061 
2260.572352  	-0.001034 
2262.501168  	-0.001171 
2264.429984  	-0.000975 
2266.358800  	-0.000954 
2268.287616  	-0.000994 
2270.216432  	-0.000845 
2272.145248  	-0.000953 
2274.074064  	-0.000848 
2276.002880  	-0.000323 
2277.931696  	-0.000137 
2279.860512  	-0.000216 
2281.789328  	0.000083 
2283.718144  	0.000306 
2285.646960  	0.000127 
2287.575776  	-0.000284 
2289.504592  	-0.000453 
2291.433408  	-0.000575 
2293.362224  	-0.000958 
2295.291040  	-0.001103 
2297.219856  	-0.000955 
2299.148672  	-0.001068 
2301.077488  	-0.001191 
2303.006304  	-0.001420 
2304.935120  	-0.001752 
2306.863936  	-0.001993 
2308.792752  	-0.001746 
2310.721568  	-0.001744 
2312.650384  	-0.002275 
2314.579200  	-0.003149 
2316.508016  	-0.003579 
2318.436832  	-0.003893 
2320.365648  	-0.004135 
2322.294464  	-0.004278 
2324.223280  	-0.004821 
2326.152096  	-0.005745 
2328.080912  	-0.006713 
2330.009728  	-0.007471 
2331.938544  	-0.007802 
2333.867360  	-0.007820 
2335.796176  	-0.008028 
2337.724992  	-0.008987 
2339.653808  	-0.009148 
2341.582624  	-0.009131 
2343.511440  	-0.008818 
2345.440256  	-0.007423 
2347.369072  	-0.005823 
2349.297888  	-0.005245 
2351.226704  	-0.006380 
2353.155520  	-0.008233 
2355.084336  	-0.009481 
2357.013152  	-0.010901 
2358.941968  	-0.012066 
2360.870784  	-0.012058 
2362.799600  	-0.011505 
2364.728416  	-0.010927 
2366.657232  	-0.010128 
2368.586048  	-0.008852 
2370.514864  	-0.007384 
2372.443680  	-0.006026 
2374.372496  	-0.004658 
2376.301312  	-0.003760 
2378.230128  	-0.002844 
2380.158944  	-0.002171 
2382.087760  	-0.001680 
2384.016576  	-0.001206 
2385.945392  	-0.001103 
2387.874208  	-0.001151 
2389.803024  	-0.001078 
2391.731840  	-0.001072 
2393.660656  	-0.000902 
2395.589472  	-0.000712 
2397.518288  	-0.000488 
2399.447104  	-0.000588 
2401.375920  	-0.000777 
2403.304736  	-0.000866 
2405.233552  	-0.000686 
2407.162368  	-0.000591 
2409.091184  	-0.000522 
2411.020000  	-0.000701 
2412.948816  	-0.000759 
2414.877632  	-0.000685 
2416.806448  	-0.000505 
2418.735264  	-0.000215 
2420.664080  	-0.000283 
2422.592896  	-0.000482 
2424.521712  	-0.000676 
2426.450528  	-0.000630 
2428.379344  	-0.000347 
2430.308160  	-0.000365 
2432.236976  	-0.000359 
2434.165792  	-0.000404 
2436.094608  	-0.000451 
2438.023424  	-0.000441 
2439.952240  	-0.000224 
2441.881056  	-0.000285 
2443.809872  	-0.000311 
2445.738688  	-0.000138 
2447.667504  	-0.000031 
2449.596320  	-0.000126 
2451.525136  	-0.000275 
2453.453952  	-0.000254 
2455.382768  	-0.000081 
2457.311584  	0.000095 
2459.240400  	0.000139 
2461.169216  	0.000090 
2463.098032  	0.000042 
2465.026848  	-0.000087 
2466.955664  	-0.000221 
2468.884480  	-0.000439 
2470.813296  	-0.000385 
2472.742112  	-0.000026 
2474.670928  	0.000113 
2476.599744  	0.000063 
2478.528560  	0.000163 
2480.457376  	0.000270 
2482.386192  	0.000150 
2484.315008  	-0.000103 
2486.243824  	-0.000267 
2488.172640  	0.000035 
2490.101456  	0.000297 
2492.030272  	0.000154 
2493.959088  	-0.000113 
2495.887904  	-0.000057 
2497.816720  	0.000001 
2499.745536  	-0.000074 
2501.674352  	-0.000040 
2503.603168  	0.000202 
2505.531984  	0.000228 
2507.460800  	0.000149 
2509.389616  	0.000339 
2511.318432  	0.000437 
2513.247248  	0.000137 
2515.176064  	-0.000012 
2517.104880  	0.000027 
2519.033696  	0.000180 
2520.962512  	0.000247 
2522.891328  	0.000092 
2524.820144  	0.000230 
2526.748960  	0.000347 
2528.677776  	0.000247 
2530.606592  	0.000118 
2532.535408  	0.000326 
2534.464224  	0.000315 
2536.393040  	0.000196 
2538.321856  	0.000175 
2540.250672  	0.000360 
2542.179488  	0.000631 
2544.108304  	0.000685 
2546.037120  	0.000599 
2547.965936  	0.000623 
2549.894752  	0.000560 
2551.823568  	0.000641 
2553.752384  	0.000624 
2555.681200  	0.000567 
2557.610016  	0.000581 
2559.538832  	0.000747 
2561.467648  	0.000775 
2563.396464  	0.000598 
2565.325280  	0.000623 
2567.254096  	0.000801 
2569.182912  	0.000594 
2571.111728  	0.000507 
2573.040544  	0.000584 
2574.969360  	0.000649 
2576.898176  	0.000558 
2578.826992  	0.000585 
2580.755808  	0.000700 
2582.684624  	0.000712 
2584.613440  	0.000674 
2586.542256  	0.000629 
2588.471072  	0.000656 
2590.399888  	0.000842 
2592.328704  	0.000751 
2594.257520  	0.000800 
2596.186336  	0.000922 
2598.115152  	0.001048 
2600.043968  	0.001146 
2601.972784  	0.000967 
2603.901600  	0.000873 
2605.830416  	0.001022 
2607.759232  	0.001077 
2609.688048  	0.000998 
2611.616864  	0.000949 
2613.545680  	0.000910 
2615.474496  	0.000993 
2617.403312  	0.001102 
2619.332128  	0.000976 
2621.260944  	0.000824 
2623.189760  	0.000903 
2625.118576  	0.001126 
2627.047392  	0.001354 
2628.976208  	0.001403 
2630.905024  	0.001313 
2632.833840  	0.001259 
2634.762656  	0.001241 
2636.691472  	0.001265 
2638.620288  	0.001280 
2640.549104  	0.001347 
2642.477920  	0.001426 
2644.406736  	0.001424 
2646.335552  	0.001391 
2648.264368  	0.001425 
2650.193184  	0.001499 
2652.122000  	0.001574 
2654.050816  	0.001593 
2655.979632  	0.001446 
2657.908448  	0.001300 
2659.837264  	0.001304 
2661.766080  	0.001290 
2663.694896  	0.001284 
2665.623712  	0.001263 
2667.552528  	0.001310 
2669.481344  	0.001377 
2671.410160  	0.001387 
2673.338976  	0.001436 
2675.267792  	0.001434 
2677.196608  	0.001502 
2679.125424  	0.001581 
2681.054240  	0.001591 
2682.983056  	0.001642 
2684.911872  	0.001583 
2686.840688  	0.001520 
2688.769504  	0.001552 
2690.698320  	0.001577 
2692.627136  	0.001695 
2694.555952  	0.001772 
2696.484768  	0.001674 
2698.413584  	0.001528 
2700.342400  	0.001491 
2702.271216  	0.001594 
2704.200032  	0.001611 
2706.128848  	0.001668 
2708.057664  	0.001816 
2709.986480  	0.001943 
2711.915296  	0.001898 
2713.844112  	0.001825 
2715.772928  	0.001807 
2717.701744  	0.001926 
2719.630560  	0.001918 
2721.559376  	0.001905 
2723.488192  	0.001978 
2725.417008  	0.002095 
2727.345824  	0.002084 
2729.274640  	0.002045 
2731.203456  	0.002033 
2733.132272  	0.002070 
2735.061088  	0.002105 
2736.989904  	0.002091 
2738.918720  	0.001978 
2740.847536  	0.001913 
2742.776352  	0.001996 
2744.705168  	0.002107 
2746.633984  	0.002094 
2748.562800  	0.002014 
2750.491616  	0.002022 
2752.420432  	0.001989 
2754.349248  	0.001927 
2756.278064  	0.002071 
2758.206880  	0.002228 
2760.135696  	0.002219 
2762.064512  	0.002193 
2763.993328  	0.002167 
2765.922144  	0.002074 
2767.850960  	0.002101 
2769.779776  	0.002228 
2771.708592  	0.002257 
2773.637408  	0.002193 
2775.566224  	0.002114 
2777.495040  	0.002276 
2779.423856  	0.002509 
2781.352672  	0.002459 
2783.281488  	0.002365 
2785.210304  	0.002400 
2787.139120  	0.002436 
2789.067936  	0.002299 
2790.996752  	0.002175 
2792.925568  	0.002194 
2794.854384  	0.002200 
2796.783200  	0.002327 
2798.712016  	0.002389 
2800.640832  	0.002390 
2802.569648  	0.002275 
2804.498464  	0.002272 
2806.427280  	0.002353 
2808.356096  	0.002349 
2810.284912  	0.002283 
2812.213728  	0.002328 
2814.142544  	0.002434 
2816.071360  	0.002429 
2818.000176  	0.002310 
2819.928992  	0.002179 
2821.857808  	0.002229 
2823.786624  	0.002361 
2825.715440  	0.002433 
2827.644256  	0.002293 
2829.573072  	0.002092 
2831.501888  	0.002009 
2833.430704  	0.001946 
2835.359520  	0.001789 
2837.288336  	0.001701 
2839.217152  	0.001497 
2841.145968  	0.001279 
2843.074784  	0.001144 
2845.003600  	0.001111 
2846.932416  	0.001098 
2848.861232  	0.000997 
2850.790048  	0.000750 
2852.718864  	0.000385 
2854.647680  	0.000123 
2856.576496  	-0.000097 
2858.505312  	-0.000403 
2860.434128  	-0.000794 
2862.362944  	-0.001256 
2864.291760  	-0.001651 
2866.220576  	-0.001965 
2868.149392  	-0.002189 
2870.078208  	-0.002268 
2872.007024  	-0.002274 
2873.935840  	-0.002378 
2875.864656  	-0.002680 
2877.793472  	-0.003010 
2879.722288  	-0.003101 
2881.651104  	-0.003267 
2883.579920  	-0.003725 
2885.508736  	-0.003891 
2887.437552  	-0.003754 
2889.366368  	-0.003817 
2891.295184  	-0.003978 
2893.224000  	-0.004076 
2895.152816  	-0.004150 
2897.081632  	-0.004361 
2899.010448  	-0.005199 
2900.939264  	-0.005961 
2902.868080  	-0.005367 
2904.796896  	-0.004771 
2906.725712  	-0.004445 
2908.654528  	-0.004224 
2910.583344  	-0.004322 
2912.512160  	-0.004043 
2914.440976  	-0.003318 
2916.369792  	-0.003022 
2918.298608  	-0.003053 
2920.227424  	-0.002928 
2922.156240  	-0.002733 
2924.085056  	-0.002428 
2926.013872  	-0.002156 
2927.942688  	-0.001903 
2929.871504  	-0.001751 
2931.800320  	-0.001547 
2933.729136  	-0.001288 
2935.657952  	-0.001172 
2937.586768  	-0.001116 
2939.515584  	-0.001079 
2941.444400  	-0.001125 
2943.373216  	-0.001180 
2945.302032  	-0.001231 
2947.230848  	-0.001155 
2949.159664  	-0.001232 
2951.088480  	-0.001687 
2953.017296  	-0.002082 
2954.946112  	-0.002424 
2956.874928  	-0.002834 
2958.803744  	-0.003167 
2960.732560  	-0.003400 
2962.661376  	-0.003730 
2964.590192  	-0.004134 
2966.519008  	-0.004834 
2968.447824  	-0.005477 
2970.376640  	-0.005636 
2972.305456  	-0.005624 
2974.234272  	-0.005613 
2976.163088  	-0.005584 
2978.091904  	-0.005675 
2980.020720  	-0.005684 
2981.949536  	-0.005441 
2983.878352  	-0.005460 
2985.807168  	-0.006086 
2987.735984  	-0.006704 
2989.664800  	-0.006383 
2991.593616  	-0.004880 
2993.522432  	-0.003984 
2995.451248  	-0.003647 
2997.380064  	-0.003191 
2999.308880  	-0.002623 
3001.237696  	-0.002064 
3003.166512  	-0.001468 
3005.095328  	-0.000750 
3007.024144  	-0.000187 
3008.952960  	0.000273 
3010.881776  	0.000966 
3012.810592  	0.001716 
3014.739408  	0.002362 
3016.668224  	0.002741 
3018.597040  	0.003130 
3020.525856  	0.003606 
3022.454672  	0.004045 
3024.383488  	0.004522 
3026.312304  	0.004853 
3028.241120  	0.005167 
3030.169936  	0.005550 
3032.098752  	0.005892 
3034.027568  	0.006184 
3035.956384  	0.006456 
3037.885200  	0.006692 
3039.814016  	0.006867 
3041.742832  	0.007032 
3043.671648  	0.007189 
3045.600464  	0.007475 
3047.529280  	0.007693 
3049.458096  	0.007712 
3051.386912  	0.007501 
3053.315728  	0.007501 
3055.244544  	0.007763 
3057.173360  	0.007953 
3059.102176  	0.007999 
3061.030992  	0.008037 
3062.959808  	0.008183 
3064.888624  	0.008396 
3066.817440  	0.008524 
3068.746256  	0.008418 
3070.675072  	0.008499 
3072.603888  	0.008697 
3074.532704  	0.008872 
3076.461520  	0.008988 
3078.390336  	0.008985 
3080.319152  	0.008965 
3082.247968  	0.009067 
3084.176784  	0.009154 
3086.105600  	0.009345 
3088.034416  	0.009585 
3089.963232  	0.009582 
3091.892048  	0.009567 
3093.820864  	0.009594 
3095.749680  	0.009562 
3097.678496  	0.009609 
3099.607312  	0.009861 
3101.536128  	0.010067 
3103.464944  	0.010350 
3105.393760  	0.010400 
3107.322576  	0.010350 
3109.251392  	0.010312 
3111.180208  	0.010272 
3113.109024  	0.010377 
3115.037840  	0.010376 
3116.966656  	0.010458 
3118.895472  	0.010646 
3120.824288  	0.010696 
3122.753104  	0.010797 
3124.681920  	0.010807 
3126.610736  	0.010739 
3128.539552  	0.010780 
3130.468368  	0.010949 
3132.397184  	0.011106 
3134.326000  	0.011257 
3136.254816  	0.011135 
3138.183632  	0.010995 
3140.112448  	0.011214 
3142.041264  	0.011431 
3143.970080  	0.011521 
3145.898896  	0.011575 
3147.827712  	0.011593 
3149.756528  	0.011505 
3151.685344  	0.011562 
3153.614160  	0.011689 
3155.542976  	0.011711 
3157.471792  	0.011882 
3159.400608  	0.012188 
3161.329424  	0.012235 
3163.258240  	0.012118 
3165.187056  	0.012218 
3167.115872  	0.012303 
3169.044688  	0.012285 
3170.973504  	0.012227 
3172.902320  	0.012257 
3174.831136  	0.012385 
3176.759952  	0.012441 
3178.688768  	0.012353 
3180.617584  	0.012549 
3182.546400  	0.012720 
3184.475216  	0.012786 
3186.404032  	0.012989 
3188.332848  	0.012935 
3190.261664  	0.012722 
3192.190480  	0.012601 
3194.119296  	0.012698 
3196.048112  	0.012744 
3197.976928  	0.012711 
3199.905744  	0.012834 
3201.834560  	0.012905 
3203.763376  	0.012811 
3205.692192  	0.012760 
3207.621008  	0.012817 
3209.549824  	0.012834 
3211.478640  	0.012796 
3213.407456  	0.012926 
3215.336272  	0.013024 
3217.265088  	0.012854 
3219.193904  	0.012715 
3221.122720  	0.012848 
3223.051536  	0.012727 
3224.980352  	0.012430 
3226.909168  	0.012417 
3228.837984  	0.012545 
3230.766800  	0.012523 
3232.695616  	0.012452 
3234.624432  	0.012370 
3236.553248  	0.012384 
3238.482064  	0.012509 
3240.410880  	0.012396 
3242.339696  	0.012120 
3244.268512  	0.012190 
3246.197328  	0.012484 
3248.126144  	0.012475 
3250.054960  	0.012459 
3251.983776  	0.012390 
3253.912592  	0.012461 
3255.841408  	0.012460 
3257.770224  	0.012363 
3259.699040  	0.012475 
3261.627856  	0.012540 
3263.556672  	0.012624 
3265.485488  	0.012863 
3267.414304  	0.012795 
3269.343120  	0.012662 
3271.271936  	0.012552 
3273.200752  	0.012661 
3275.129568  	0.012915 
3277.058384  	0.012892 
3278.987200  	0.012856 
3280.916016  	0.012684 
3282.844832  	0.012614 
3284.773648  	0.012928 
3286.702464  	0.013176 
3288.631280  	0.013083 
3290.560096  	0.012992 
3292.488912  	0.013087 
3294.417728  	0.013087 
3296.346544  	0.013091 
3298.275360  	0.013213 
3300.204176  	0.013281 
3302.132992  	0.013451 
3304.061808  	0.013813 
3305.990624  	0.013810 
3307.919440  	0.013783 
3309.848256  	0.013915 
3311.777072  	0.013842 
3313.705888  	0.013806 
3315.634704  	0.013849 
3317.563520  	0.013932 
3319.492336  	0.014140 
3321.421152  	0.014388 
3323.349968  	0.014333 
3325.278784  	0.014262 
3327.207600  	0.014426 
3329.136416  	0.014482 
3331.065232  	0.014312 
3332.994048  	0.014246 
3334.922864  	0.014293 
3336.851680  	0.014475 
3338.780496  	0.014543 
3340.709312  	0.014483 
3342.638128  	0.014405 
3344.566944  	0.014450 
3346.495760  	0.014596 
3348.424576  	0.014516 
3350.353392  	0.014569 
3352.282208  	0.014464 
3354.211024  	0.014266 
3356.139840  	0.014164 
3358.068656  	0.014121 
3359.997472  	0.014185 
3361.926288  	0.014219 
3363.855104  	0.014180 
3365.783920  	0.014015 
3367.712736  	0.013751 
3369.641552  	0.013774 
3371.570368  	0.013834 
3373.499184  	0.013786 
3375.428000  	0.013735 
3377.356816  	0.013663 
3379.285632  	0.013426 
3381.214448  	0.013186 
3383.143264  	0.013131 
3385.072080  	0.013146 
3387.000896  	0.012888 
3388.929712  	0.012571 
3390.858528  	0.012466 
3392.787344  	0.012571 
3394.716160  	0.012622 
3396.644976  	0.012714 
3398.573792  	0.012783 
3400.502608  	0.012692 
3402.431424  	0.012534 
3404.360240  	0.012341 
3406.289056  	0.012228 
3408.217872  	0.012179 
3410.146688  	0.012067 
3412.075504  	0.012051 
3414.004320  	0.012045 
3415.933136  	0.011928 
3417.861952  	0.011632 
3419.790768  	0.011666 
3421.719584  	0.011800 
3423.648400  	0.011649 
3425.577216  	0.011496 
3427.506032  	0.011482 
3429.434848  	0.011361 
3431.363664  	0.011169 
3433.292480  	0.011070 
3435.221296  	0.010943 
3437.150112  	0.010873 
3439.078928  	0.010896 
3441.007744  	0.010932 
3442.936560  	0.010848 
3444.865376  	0.010560 
3446.794192  	0.010472 
3448.723008  	0.010553 
3450.651824  	0.010493 
3452.580640  	0.010374 
3454.509456  	0.010215 
3456.438272  	0.010002 
3458.367088  	0.009948 
3460.295904  	0.009972 
3462.224720  	0.009774 
3464.153536  	0.009677 
3466.082352  	0.009564 
3468.011168  	0.009310 
3469.939984  	0.009255 
3471.868800  	0.009157 
3473.797616  	0.008872 
3475.726432  	0.008690 
3477.655248  	0.008603 
3479.584064  	0.008574 
3481.512880  	0.008493 
3483.441696  	0.008246 
3485.370512  	0.008104 
3487.299328  	0.008065 
3489.228144  	0.007948 
3491.156960  	0.007737 
3493.085776  	0.007556 
3495.014592  	0.007462 
3496.943408  	0.007313 
3498.872224  	0.007258 
3500.801040  	0.007320 
3502.729856  	0.007262 
3504.658672  	0.006989 
3506.587488  	0.006806 
3508.516304  	0.006537 
3510.445120  	0.006547 
3512.373936  	0.006736 
3514.302752  	0.006550 
3516.231568  	0.006467 
3518.160384  	0.006399 
3520.089200  	0.006220 
3522.018016  	0.006112 
3523.946832  	0.005962 
3525.875648  	0.005656 
3527.804464  	0.005478 
3529.733280  	0.005558 
3531.662096  	0.005519 
3533.590912  	0.005490 
3535.519728  	0.005568 
3537.448544  	0.005559 
3539.377360  	0.005365 
3541.306176  	0.005068 
3543.234992  	0.004942 
3545.163808  	0.004995 
3547.092624  	0.004818 
3549.021440  	0.004690 
3550.950256  	0.004478 
3552.879072  	0.004282 
3554.807888  	0.004398 
3556.736704  	0.004472 
3558.665520  	0.004379 
3560.594336  	0.004023 
3562.523152  	0.003878 
3564.451968  	0.003872 
3566.380784  	0.003916 
3568.309600  	0.004001 
3570.238416  	0.003579 
3572.167232  	0.003257 
3574.096048  	0.003268 
3576.024864  	0.003491 
3577.953680  	0.003245 
3579.882496  	0.002876 
3581.811312  	0.002728 
3583.740128  	0.002694 
3585.668944  	0.002745 
3587.597760  	0.002913 
3589.526576  	0.002757 
3591.455392  	0.002200 
3593.384208  	0.002030 
3595.313024  	0.002093 
3597.241840  	0.002123 
3599.170656  	0.001778 
3601.099472  	0.001569 
3603.028288  	0.001446 
3604.957104  	0.001394 
3606.885920  	0.001450 
3608.814736  	0.001232 
3610.743552  	0.001036 
3612.672368  	0.000761 
3614.601184  	0.000521 
3616.530000  	0.000456 
3618.458816  	0.000253 
3620.387632  	0.000039 
3622.316448  	-0.000257 
3624.245264  	-0.000312 
3626.174080  	-0.000534 
3628.102896  	-0.001113 
3630.031712  	-0.001284 
3631.960528  	-0.001288 
3633.889344  	-0.001339 
3635.818160  	-0.001452 
3637.746976  	-0.001495 
3639.675792  	-0.001671 
3641.604608  	-0.001912 
3643.533424  	-0.002246 
3645.462240  	-0.002820 
3647.391056  	-0.003274 
3649.319872  	-0.003720 
3651.248688  	-0.003892 
3653.177504  	-0.003866 
3655.106320  	-0.004160 
3657.035136  	-0.004754 
3658.963952  	-0.004692 
3660.892768  	-0.004936 
3662.821584  	-0.004981 
3664.750400  	-0.004597 
3666.679216  	-0.004759 
3668.608032  	-0.005244 
3670.536848  	-0.005349 
3672.465664  	-0.005434 
3674.394480  	-0.006023 
3676.323296  	-0.006459 
3678.252112  	-0.005446 
3680.180928  	-0.004801 
3682.109744  	-0.005048 
3684.038560  	-0.005322 
3685.967376  	-0.005214 
3687.896192  	-0.005050 
3689.825008  	-0.005344 
3691.753824  	-0.005460 
3693.682640  	-0.005157 
3695.611456  	-0.004776 
3697.540272  	-0.004566 
3699.469088  	-0.004299 
3701.397904  	-0.004007 
3703.326720  	-0.003782 
3705.255536  	-0.003575 
3707.184352  	-0.003414 
3709.113168  	-0.003607 
3711.041984  	-0.003926 
3712.970800  	-0.003529 
3714.899616  	-0.003141 
3716.828432  	-0.002967 
3718.757248  	-0.002973 
3720.686064  	-0.003206 
3722.614880  	-0.003198 
3724.543696  	-0.003058 
3726.472512  	-0.003008 
3728.401328  	-0.002995 
3730.330144  	-0.003296 
3732.258960  	-0.003651 
3734.187776  	-0.003626 
3736.116592  	-0.003386 
3738.045408  	-0.003250 
3739.974224  	-0.002969 
3741.903040  	-0.002802 
3743.831856  	-0.002746 
3745.760672  	-0.002950 
3747.689488  	-0.003033 
3749.618304  	-0.003322 
3751.547120  	-0.003470 
3753.475936  	-0.003012 
3755.404752  	-0.002748 
3757.333568  	-0.002747 
3759.262384  	-0.003028 
3761.191200  	-0.002900 
3763.120016  	-0.002775 
3765.048832  	-0.002977 
3766.977648  	-0.003004 
3768.906464  	-0.002860 
3770.835280  	-0.002720 
3772.764096  	-0.002780 
3774.692912  	-0.002887 
3776.621728  	-0.002817 
3778.550544  	-0.002741 
3780.479360  	-0.002845 
3782.408176  	-0.002808 
3784.336992  	-0.002808 
3786.265808  	-0.002767 
3788.194624  	-0.002699 
3790.123440  	-0.002630 
3792.052256  	-0.002495 
3793.981072  	-0.002311 
3795.909888  	-0.002479 
3797.838704  	-0.002938 
3799.767520  	-0.003194 
3801.696336  	-0.003416 
3803.625152  	-0.003144 
3805.553968  	-0.002952 
3807.482784  	-0.003054 
3809.411600  	-0.002898 
3811.340416  	-0.002647 
3813.269232  	-0.002723 
3815.198048  	-0.003096 
3817.126864  	-0.003167 
3819.055680  	-0.003155 
3820.984496  	-0.003348 
3822.913312  	-0.003079 
3824.842128  	-0.002809 
3826.770944  	-0.002733 
3828.699760  	-0.002937 
3830.628576  	-0.003061 
3832.557392  	-0.003118 
3834.486208  	-0.003212 
3836.415024  	-0.003222 
3838.343840  	-0.003121 
3840.272656  	-0.003053 
3842.201472  	-0.002927 
3844.130288  	-0.002882 
3846.059104  	-0.002898 
3847.987920  	-0.002907 
3849.916736  	-0.002766 
3851.845552  	-0.002634 
3853.774368  	-0.003014 
3855.703184  	-0.003602 
3857.632000  	-0.003315 
3859.560816  	-0.002950 
3861.489632  	-0.002883 
3863.418448  	-0.002874 
3865.347264  	-0.002848 
3867.276080  	-0.002919 
3869.204896  	-0.002956 
3871.133712  	-0.002848 
3873.062528  	-0.002797 
3874.991344  	-0.002881 
3876.920160  	-0.002835 
3878.848976  	-0.002606 
3880.777792  	-0.002535 
3882.706608  	-0.002722 
3884.635424  	-0.002859 
3886.564240  	-0.002759 
3888.493056  	-0.002705 
3890.421872  	-0.002739 
3892.350688  	-0.002981 
3894.279504  	-0.002926 
3896.208320  	-0.002831 
3898.137136  	-0.002745 
3900.065952  	-0.002586 
3901.994768  	-0.002675 
3903.923584  	-0.002966 
3905.852400  	-0.002926 
3907.781216  	-0.002861 
3909.710032  	-0.002804 
3911.638848  	-0.002610 
3913.567664  	-0.002621 
3915.496480  	-0.002667 
3917.425296  	-0.002680 
3919.354112  	-0.002610 
3921.282928  	-0.002544 
3923.211744  	-0.002689 
3925.140560  	-0.002901 
3927.069376  	-0.002867 
3928.998192  	-0.002812 
3930.927008  	-0.002741 
3932.855824  	-0.002666 
3934.784640  	-0.002521 
3936.713456  	-0.002512 
3938.642272  	-0.002620 
3940.571088  	-0.002568 
3942.499904  	-0.002645 
3944.428720  	-0.002726 
3946.357536  	-0.002727 
3948.286352  	-0.002569 
3950.215168  	-0.002493 
3952.143984  	-0.002652 
3954.072800  	-0.002624 
3956.001616  	-0.002441 
3957.930432  	-0.002401 
3959.859248  	-0.002479 
3961.788064  	-0.002606 
3963.716880  	-0.002650 
3965.645696  	-0.002913 
3967.574512  	-0.002883 
3969.503328  	-0.002677 
3971.432144  	-0.002612 
3973.360960  	-0.002652 
3975.289776  	-0.002654 
3977.218592  	-0.002539 
3979.147408  	-0.002524 
3981.076224  	-0.002517 
3983.005040  	-0.002543 
3984.933856  	-0.002616 
3986.862672  	-0.002733 
3988.791488  	-0.002631 
3990.720304  	-0.002542 
3992.649120  	-0.002647 
3994.577936  	-0.002650 
3996.506752  	-0.002512 
3998.435568  	-0.002492 
4000.364384  	-0.002623 