##TITLE=No Description
##DATA TYPE=INFRARED SPECTRUM
##XUNITS=1/CM
##YUNITS=Abs
399.264912  	0.238343 
401.193728  	0.228563 
403.122544  	0.220421 
405.051360  	0.217799 
406.980176  	0.221224 
408.908992  	0.221933 
410.837808  	0.225634 
412.766624  	0.223497 
414.695440  	0.222006 
416.624256  	0.219978 
418.553072  	0.221167 
420.481888  	0.215313 
422.410704  	0.216797 
424.339520  	0.211534 
426.268336  	0.208965 
428.197152  	0.205151 
430.125968  	0.204683 
432.054784  	0.204269 
433.983600  	0.208798 
435.912416  	0.205937 
437.841232  	0.201066 
439.770048  	0.200027 
441.698864  	0.201606 
443.627680  	0.202465 
445.556496  	0.201825 
447.485312  	0.199093 
449.414128  	0.194440 
451.342944  	0.194730 
453.271760  	0.199033 
455.200576  	0.199946 
457.129392  	0.201673 
459.058208  	0.200651 
460.987024  	0.201030 
462.915840  	0.199513 
464.844656  	0.200408 
466.773472  	0.198573 
468.702288  	0.199218 
470.631104  	0.201345 
472.559920  	0.202097 
474.488736  	0.201112 
476.417552  	0.200296 
478.346368  	0.200050 
480.275184  	0.199495 
482.204000  	0.197861 
484.132816  	0.200551 
486.061632  	0.202634 
487.990448  	0.203546 
489.919264  	0.202753 
491.848080  	0.203625 
493.776896  	0.203671 
495.705712  	0.204142 
497.634528  	0.202798 
499.563344  	0.204295 
501.492160  	0.207216 
503.420976  	0.208444 
505.349792  	0.206649 
507.278608  	0.206943 
509.207424  	0.208440 
511.136240  	0.210441 
513.065056  	0.211138 
514.993872  	0.211417 
516.922688  	0.211432 
518.851504  	0.213447 
520.780320  	0.214499 
522.709136  	0.215029 
524.637952  	0.215854 
526.566768  	0.218234 
528.495584  	0.217338 
530.424400  	0.215372 
532.353216  	0.214079 
534.282032  	0.214963 
536.210848  	0.215677 
538.139664  	0.215806 
540.068480  	0.214517 
541.997296  	0.214101 
543.926112  	0.212616 
545.854928  	0.211481 
547.783744  	0.211179 
549.712560  	0.211648 
551.641376  	0.210994 
553.570192  	0.210852 
555.499008  	0.210223 
557.427824  	0.209920 
559.356640  	0.209536 
561.285456  	0.209237 
563.214272  	0.208333 
565.143088  	0.207535 
567.071904  	0.206375 
569.000720  	0.205901 
570.929536  	0.205136 
572.858352  	0.205427 
574.787168  	0.205156 
576.715984  	0.204339 
578.644800  	0.202800 
580.573616  	0.201777 
582.502432  	0.200798 
584.431248  	0.200819 
586.360064  	0.199953 
588.288880  	0.199021 
590.217696  	0.198699 
592.146512  	0.198743 
594.075328  	0.197565 
596.004144  	0.196836 
597.932960  	0.196385 
599.861776  	0.195575 
601.790592  	0.194537 
603.719408  	0.194608 
605.648224  	0.194660 
607.577040  	0.194263 
609.505856  	0.193648 
611.434672  	0.193787 
613.363488  	0.193611 
615.292304  	0.193610 
617.221120  	0.192911 
619.149936  	0.193178 
621.078752  	0.192395 
623.007568  	0.191484 
624.936384  	0.191181 
626.865200  	0.190964 
628.794016  	0.190190 
630.722832  	0.189953 
632.651648  	0.190002 
634.580464  	0.189898 
636.509280  	0.189354 
638.438096  	0.189224 
640.366912  	0.189430 
642.295728  	0.189471 
644.224544  	0.188709 
646.153360  	0.188074 
648.082176  	0.186652 
650.010992  	0.185720 
651.939808  	0.184835 
653.868624  	0.183581 
655.797440  	0.181904 
657.726256  	0.180947 
659.655072  	0.179754 
661.583888  	0.178108 
663.512704  	0.176411 
665.441520  	0.175160 
667.370336  	0.172122 
669.299152  	0.169943 
671.227968  	0.169997 
673.156784  	0.169412 
675.085600  	0.168691 
677.014416  	0.168060 
678.943232  	0.167024 
680.872048  	0.166076 
682.800864  	0.165061 
684.729680  	0.164523 
686.658496  	0.163368 
688.587312  	0.162812 
690.516128  	0.162112 
692.444944  	0.161495 
694.373760  	0.160807 
696.302576  	0.160115 
698.231392  	0.159228 
700.160208  	0.158033 
702.089024  	0.156572 
704.017840  	0.155325 
705.946656  	0.153801 
707.875472  	0.152877 
709.804288  	0.151988 
711.733104  	0.151246 
713.661920  	0.150322 
715.590736  	0.149360 
717.519552  	0.148570 
719.448368  	0.148190 
721.377184  	0.147812 
723.306000  	0.147712 
725.234816  	0.147853 
727.163632  	0.147245 
729.092448  	0.146070 
731.021264  	0.145172 
732.950080  	0.144402 
734.878896  	0.143273 
736.807712  	0.141740 
738.736528  	0.140608 
740.665344  	0.139584 
742.594160  	0.138956 
744.522976  	0.138123 
746.451792  	0.137006 
748.380608  	0.136102 
750.309424  	0.135661 
752.238240  	0.134948 
754.167056  	0.134496 
756.095872  	0.134267 
758.024688  	0.133833 
759.953504  	0.132852 
761.882320  	0.132287 
763.811136  	0.131736 
765.739952  	0.131158 
767.668768  	0.130392 
769.597584  	0.129532 
771.526400  	0.128842 
773.455216  	0.128640 
775.384032  	0.129087 
777.312848  	0.130023 
779.241664  	0.130775 
781.170480  	0.131097 
783.099296  	0.129892 
785.028112  	0.127800 
786.956928  	0.125234 
788.885744  	0.123117 
790.814560  	0.121266 
792.743376  	0.119903 
794.672192  	0.118988 
796.601008  	0.118365 
798.529824  	0.117030 
800.458640  	0.115484 
802.387456  	0.113794 
804.316272  	0.112494 
806.245088  	0.111397 
808.173904  	0.110396 
810.102720  	0.109526 
812.031536  	0.108786 
813.960352  	0.107972 
815.889168  	0.107603 
817.817984  	0.107008 
819.746800  	0.105961 
821.675616  	0.105076 
823.604432  	0.104472 
825.533248  	0.103837 
827.462064  	0.102883 
829.390880  	0.101549 
831.319696  	0.100601 
833.248512  	0.099547 
835.177328  	0.098599 
837.106144  	0.097250 
839.034960  	0.095798 
840.963776  	0.094468 
842.892592  	0.093288 
844.821408  	0.091844 
846.750224  	0.090447 
848.679040  	0.089321 
850.607856  	0.088199 
852.536672  	0.087090 
854.465488  	0.086178 
856.394304  	0.085184 
858.323120  	0.084151 
860.251936  	0.082857 
862.180752  	0.081683 
864.109568  	0.080361 
866.038384  	0.079363 
867.967200  	0.078536 
869.896016  	0.077898 
871.824832  	0.077036 
873.753648  	0.076685 
875.682464  	0.076626 
877.611280  	0.076101 
879.540096  	0.075453 
881.468912  	0.075409 
883.397728  	0.075205 
885.326544  	0.074912 
887.255360  	0.074470 
889.184176  	0.073871 
891.112992  	0.072839 
893.041808  	0.072258 
894.970624  	0.071572 
896.899440  	0.070262 
898.828256  	0.069045 
900.757072  	0.068154 
902.685888  	0.067609 
904.614704  	0.067325 
906.543520  	0.067290 
908.472336  	0.067632 
910.401152  	0.068279 
912.329968  	0.069078 
914.258784  	0.069982 
916.187600  	0.070848 
918.116416  	0.071400 
920.045232  	0.071479 
921.974048  	0.071108 
923.902864  	0.070767 
925.831680  	0.070176 
927.760496  	0.069651 
929.689312  	0.069348 
931.618128  	0.069103 
933.546944  	0.068814 
935.475760  	0.068444 
937.404576  	0.068072 
939.333392  	0.067906 
941.262208  	0.067719 
943.191024  	0.067956 
945.119840  	0.068743 
947.048656  	0.069569 
948.977472  	0.070629 
950.906288  	0.072021 
952.835104  	0.073439 
954.763920  	0.075001 
956.692736  	0.076399 
958.621552  	0.077502 
960.550368  	0.077809 
962.479184  	0.077636 
964.408000  	0.076734 
966.336816  	0.075228 
968.265632  	0.072993 
970.194448  	0.070192 
972.123264  	0.066927 
974.052080  	0.063622 
975.980896  	0.060218 
977.909712  	0.056822 
979.838528  	0.053921 
981.767344  	0.051354 
983.696160  	0.049410 
985.624976  	0.048142 
987.553792  	0.047323 
989.482608  	0.047029 
991.411424  	0.047447 
993.340240  	0.048202 
995.269056  	0.049222 
997.197872  	0.050448 
999.126688  	0.051644 
1001.055504  	0.052818 
1002.984320  	0.053859 
1004.913136  	0.054937 
1006.841952  	0.056001 
1008.770768  	0.056999 
1010.699584  	0.057813 
1012.628400  	0.058329 
1014.557216  	0.058542 
1016.486032  	0.058656 
1018.414848  	0.058731 
1020.343664  	0.058653 
1022.272480  	0.058454 
1024.201296  	0.058051 
1026.130112  	0.056374 
1028.058928  	0.055575 
1029.987744  	0.056847 
1031.916560  	0.056941 
1033.845376  	0.056286 
1035.774192  	0.055212 
1037.703008  	0.054512 
1039.631824  	0.055148 
1041.560640  	0.055979 
1043.489456  	0.057313 
1045.418272  	0.059421 
1047.347088  	0.062344 
1049.275904  	0.065737 
1051.204720  	0.069428 
1053.133536  	0.073029 
1055.062352  	0.075939 
1056.991168  	0.077712 
1058.919984  	0.080406 
1060.848800  	0.083051 
1062.777616  	0.083332 
1064.706432  	0.081122 
1066.635248  	0.079900 
1068.564064  	0.081152 
1070.492880  	0.080777 
1072.421696  	0.078807 
1074.350512  	0.076960 
1076.279328  	0.075438 
1078.208144  	0.074991 
1080.136960  	0.075853 
1082.065776  	0.076621 
1083.994592  	0.077271 
1085.923408  	0.078106 
1087.852224  	0.078541 
1089.781040  	0.078865 
1091.709856  	0.079077 
1093.638672  	0.078301 
1095.567488  	0.076369 
1097.496304  	0.073955 
1099.425120  	0.071150 
1101.353936  	0.068142 
1103.282752  	0.064990 
1105.211568  	0.062050 
1107.140384  	0.059465 
1109.069200  	0.056754 
1110.998016  	0.053715 
1112.926832  	0.050850 
1114.855648  	0.048321 
1116.784464  	0.045889 
1118.713280  	0.043485 
1120.642096  	0.040893 
1122.570912  	0.038373 
1124.499728  	0.036228 
1126.428544  	0.034350 
1128.357360  	0.032475 
1130.286176  	0.030566 
1132.214992  	0.028962 
1134.143808  	0.027604 
1136.072624  	0.026365 
1138.001440  	0.025082 
1139.930256  	0.023875 
1141.859072  	0.022574 
1143.787888  	0.021461 
1145.716704  	0.020331 
1147.645520  	0.019183 
1149.574336  	0.018490 
1151.503152  	0.017799 
1153.431968  	0.017463 
1155.360784  	0.017231 
1157.289600  	0.017129 
1159.218416  	0.017004 
1161.147232  	0.017121 
1163.076048  	0.017350 
1165.004864  	0.017563 
1166.933680  	0.017910 
1168.862496  	0.018441 
1170.791312  	0.018912 
1172.720128  	0.019320 
1174.648944  	0.019812 
1176.577760  	0.020318 
1178.506576  	0.021013 
1180.435392  	0.021626 
1182.364208  	0.022249 
1184.293024  	0.022771 
1186.221840  	0.023285 
1188.150656  	0.024069 
1190.079472  	0.025110 
1192.008288  	0.026419 
1193.937104  	0.027773 
1195.865920  	0.029524 
1197.794736  	0.031263 
1199.723552  	0.033106 
1201.652368  	0.035275 
1203.581184  	0.037469 
1205.510000  	0.039700 
1207.438816  	0.042161 
1209.367632  	0.044408 
1211.296448  	0.046335 
1213.225264  	0.048325 
1215.154080  	0.049861 
1217.082896  	0.051254 
1219.011712  	0.052563 
1220.940528  	0.053611 
1222.869344  	0.054517 
1224.798160  	0.055482 
1226.726976  	0.056040 
1228.655792  	0.056674 
1230.584608  	0.057407 
1232.513424  	0.057999 
1234.442240  	0.058328 
1236.371056  	0.058197 
1238.299872  	0.057575 
1240.228688  	0.055898 
1242.157504  	0.054122 
1244.086320  	0.053017 
1246.015136  	0.051228 
1247.943952  	0.048688 
1249.872768  	0.046072 
1251.801584  	0.043888 
1253.730400  	0.041728 
1255.659216  	0.039565 
1257.588032  	0.037343 
1259.516848  	0.035309 
1261.445664  	0.033476 
1263.374480  	0.031766 
1265.303296  	0.030213 
1267.232112  	0.028948 
1269.160928  	0.027957 
1271.089744  	0.027298 
1273.018560  	0.026938 
1274.947376  	0.026697 
1276.876192  	0.026463 
1278.805008  	0.026138 
1280.733824  	0.025500 
1282.662640  	0.024575 
1284.591456  	0.023637 
1286.520272  	0.022683 
1288.449088  	0.022005 
1290.377904  	0.021504 
1292.306720  	0.020849 
1294.235536  	0.020154 
1296.164352  	0.019267 
1298.093168  	0.018089 
1300.021984  	0.016999 
1301.950800  	0.015905 
1303.879616  	0.014740 
1305.808432  	0.013727 
1307.737248  	0.012906 
1309.666064  	0.012121 
1311.594880  	0.011591 
1313.523696  	0.011281 
1315.452512  	0.011020 
1317.381328  	0.011057 
1319.310144  	0.011038 
1321.238960  	0.011036 
1323.167776  	0.011341 
1325.096592  	0.011509 
1327.025408  	0.011622 
1328.954224  	0.011720 
1330.883040  	0.011581 
1332.811856  	0.011143 
1334.740672  	0.010644 
1336.669488  	0.010558 
1338.598304  	0.010793 
1340.527120  	0.010510 
1342.455936  	0.009779 
1344.384752  	0.009502 
1346.313568  	0.009595 
1348.242384  	0.009948 
1350.171200  	0.010419 
1352.100016  	0.011000 
1354.028832  	0.011644 
1355.957648  	0.012420 
1357.886464  	0.013072 
1359.815280  	0.013607 
1361.744096  	0.014339 
1363.672912  	0.014756 
1365.601728  	0.014639 
1367.530544  	0.014755 
1369.459360  	0.014701 
1371.388176  	0.014373 
1373.316992  	0.014379 
1375.245808  	0.013959 
1377.174624  	0.012750 
1379.103440  	0.011388 
1381.032256  	0.009954 
1382.961072  	0.008851 
1384.889888  	0.008364 
1386.818704  	0.008436 
1388.747520  	0.008065 
1390.676336  	0.006818 
1392.605152  	0.004886 
1394.533968  	0.004640 
1396.462784  	0.006480 
1398.391600  	0.006988 
1400.320416  	0.006659 
1402.249232  	0.006015 
1404.178048  	0.006227 
1406.106864  	0.006556 
1408.035680  	0.006916 
1409.964496  	0.007784 
1411.893312  	0.009055 
1413.822128  	0.010107 
1415.750944  	0.011291 
1417.679760  	0.012441 
1419.608576  	0.013260 
1421.537392  	0.012957 
1423.466208  	0.012772 
1425.395024  	0.012347 
1427.323840  	0.011747 
1429.252656  	0.011540 
1431.181472  	0.011379 
1433.110288  	0.011151 
1435.039104  	0.011256 
1436.967920  	0.011954 
1438.896736  	0.011940 
1440.825552  	0.011792 
1442.754368  	0.011826 
1444.683184  	0.011941 
1446.612000  	0.012268 
1448.540816  	0.012476 
1450.469632  	0.012412 
1452.398448  	0.012826 
1454.327264  	0.013276 
1456.256080  	0.014167 
1458.184896  	0.014980 
1460.113712  	0.014388 
1462.042528  	0.014032 
1463.971344  	0.014386 
1465.900160  	0.015168 
1467.828976  	0.015575 
1469.757792  	0.016244 
1471.686608  	0.017703 
1473.615424  	0.019723 
1475.544240  	0.020606 
1477.473056  	0.021211 
1479.401872  	0.021535 
1481.330688  	0.022080 
1483.259504  	0.022239 
1485.188320  	0.022276 
1487.117136  	0.022312 
1489.045952  	0.022494 
1490.974768  	0.021561 
1492.903584  	0.019917 
1494.832400  	0.018605 
1496.761216  	0.017590 
1498.690032  	0.016170 
1500.618848  	0.014821 
1502.547664  	0.013468 
1504.476480  	0.012319 
1506.405296  	0.012694 
1508.334112  	0.013141 
1510.262928  	0.011922 
1512.191744  	0.011004 
1514.120560  	0.010459 
1516.049376  	0.010705 
1517.978192  	0.011021 
1519.907008  	0.011112 
1521.835824  	0.012351 
1523.764640  	0.013190 
1525.693456  	0.014128 
1527.622272  	0.014811 
1529.551088  	0.014709 
1531.479904  	0.014671 
1533.408720  	0.014721 
1535.337536  	0.013904 
1537.266352  	0.012562 
1539.195168  	0.011588 
1541.123984  	0.011281 
1543.052800  	0.011113 
1544.981616  	0.010512 
1546.910432  	0.009668 
1548.839248  	0.009467 
1550.768064  	0.009648 
1552.696880  	0.009230 
1554.625696  	0.009449 
1556.554512  	0.009205 
1558.483328  	0.010286 
1560.412144  	0.012093 
1562.340960  	0.012136 
1564.269776  	0.012834 
1566.198592  	0.014175 
1568.127408  	0.015047 
1570.056224  	0.017048 
1571.985040  	0.018459 
1573.913856  	0.019081 
1575.842672  	0.019936 
1577.771488  	0.020843 
1579.700304  	0.020591 
1581.629120  	0.020475 
1583.557936  	0.020466 
1585.486752  	0.020821 
1587.415568  	0.021519 
1589.344384  	0.022902 
1591.273200  	0.024489 
1593.202016  	0.026509 
1595.130832  	0.028453 
1597.059648  	0.030192 
1598.988464  	0.031507 
1600.917280  	0.032877 
1602.846096  	0.033833 
1604.774912  	0.034384 
1606.703728  	0.034393 
1608.632544  	0.034213 
1610.561360  	0.033735 
1612.490176  	0.033498 
1614.418992  	0.032919 
1616.347808  	0.033288 
1618.276624  	0.034520 
1620.205440  	0.035347 
1622.134256  	0.036381 
1624.063072  	0.038805 
1625.991888  	0.040758 
1627.920704  	0.043354 
1629.849520  	0.046213 
1631.778336  	0.048684 
1633.707152  	0.050837 
1635.635968  	0.054779 
1637.564784  	0.058307 
1639.493600  	0.060119 
1641.422416  	0.062020 
1643.351232  	0.063529 
1645.280048  	0.064589 
1647.208864  	0.066705 
1649.137680  	0.067150 
1651.066496  	0.066495 
1652.995312  	0.067330 
1654.924128  	0.067989 
1656.852944  	0.066554 
1658.781760  	0.065791 
1660.710576  	0.065156 
1662.639392  	0.064884 
1664.568208  	0.064241 
1666.497024  	0.063316 
1668.425840  	0.062655 
1670.354656  	0.062210 
1672.283472  	0.061400 
1674.212288  	0.060928 
1676.141104  	0.061260 
1678.069920  	0.061153 
1679.998736  	0.061352 
1681.927552  	0.061376 
1683.856368  	0.061947 
1685.785184  	0.063131 
1687.714000  	0.062925 
1689.642816  	0.062887 
1691.571632  	0.062304 
1693.500448  	0.061512 
1695.429264  	0.061152 
1697.358080  	0.060683 
1699.286896  	0.059352 
1701.215712  	0.058608 
1703.144528  	0.056793 
1705.073344  	0.055067 
1707.002160  	0.052989 
1708.930976  	0.050597 
1710.859792  	0.048169 
1712.788608  	0.045560 
1714.717424  	0.042832 
1716.646240  	0.039756 
1718.575056  	0.036165 
1720.503872  	0.032450 
1722.432688  	0.029461 
1724.361504  	0.026243 
1726.290320  	0.023122 
1728.219136  	0.020481 
1730.147952  	0.018414 
1732.076768  	0.016248 
1734.005584  	0.014497 
1735.934400  	0.012217 
1737.863216  	0.010541 
1739.792032  	0.009236 
1741.720848  	0.008233 
1743.649664  	0.007429 
1745.578480  	0.006399 
1747.507296  	0.005539 
1749.436112  	0.005084 
1751.364928  	0.004638 
1753.293744  	0.003753 
1755.222560  	0.002903 
1757.151376  	0.002860 
1759.080192  	0.002335 
1761.009008  	0.002217 
1762.937824  	0.002182 
1764.866640  	0.001640 
1766.795456  	0.001412 
1768.724272  	0.001731 
1770.653088  	0.001176 
1772.581904  	0.001098 
1774.510720  	0.000950 
1776.439536  	0.000758 
1778.368352  	0.000698 
1780.297168  	0.000943 
1782.225984  	0.000724 
1784.154800  	0.000738 
1786.083616  	0.000696 
1788.012432  	0.000418 
1789.941248  	0.000327 
1791.870064  	0.000536 
1793.798880  	0.000373 
1795.727696  	0.000300 
1797.656512  	-0.000176 
1799.585328  	-0.000328 
1801.514144  	0.000192 
1803.442960  	0.000205 
1805.371776  	-0.000318 
1807.300592  	-0.000332 
1809.229408  	-0.000245 
1811.158224  	-0.000125 
1813.087040  	-0.000351 
1815.015856  	-0.000784 
1816.944672  	-0.000845 
1818.873488  	-0.000587 
1820.802304  	-0.000563 
1822.731120  	-0.000447 
1824.659936  	-0.000131 
1826.588752  	0.000104 
1828.517568  	-0.000088 
1830.446384  	0.000017 
1832.375200  	-0.000446 
1834.304016  	-0.000469 
1836.232832  	-0.000398 
1838.161648  	-0.000446 
1840.090464  	-0.000753 
1842.019280  	-0.000783 
1843.948096  	-0.000569 
1845.876912  	-0.000373 
1847.805728  	-0.000624 
1849.734544  	-0.000745 
1851.663360  	-0.001016 
1853.592176  	-0.000883 
1855.520992  	-0.000917 
1857.449808  	-0.000826 
1859.378624  	-0.001032 
1861.307440  	-0.001041 
1863.236256  	-0.001003 
1865.165072  	-0.000855 
1867.093888  	-0.000767 
1869.022704  	-0.000736 
1870.951520  	-0.001175 
1872.880336  	-0.001265 
1874.809152  	-0.001067 
1876.737968  	-0.001055 
1878.666784  	-0.000845 
1880.595600  	-0.000605 
1882.524416  	-0.000985 
1884.453232  	-0.000967 
1886.382048  	-0.001019 
1888.310864  	-0.001057 
1890.239680  	-0.001027 
1892.168496  	-0.001449 
1894.097312  	-0.001534 
1896.026128  	-0.001056 
1897.954944  	-0.001157 
1899.883760  	-0.001112 
1901.812576  	-0.001244 
1903.741392  	-0.001256 
1905.670208  	-0.001077 
1907.599024  	-0.000955 
1909.527840  	-0.001157 
1911.456656  	-0.001198 
1913.385472  	-0.001282 
1915.314288  	-0.001475 
1917.243104  	-0.001316 
1919.171920  	-0.001088 
1921.100736  	-0.001426 
1923.029552  	-0.001275 
1924.958368  	-0.001467 
1926.887184  	-0.001701 
1928.816000  	-0.001448 
1930.744816  	-0.000789 
1932.673632  	-0.000563 
1934.602448  	-0.000396 
1936.531264  	-0.000720 
1938.460080  	-0.000740 
1940.388896  	-0.001092 
1942.317712  	-0.000891 
1944.246528  	-0.001493 
1946.175344  	-0.001636 
1948.104160  	-0.001153 
1950.032976  	-0.000706 
1951.961792  	-0.001378 
1953.890608  	-0.001119 
1955.819424  	-0.001248 
1957.748240  	-0.001365 
1959.677056  	-0.001603 
1961.605872  	-0.001562 
1963.534688  	-0.001121 
1965.463504  	-0.001444 
1967.392320  	-0.001131 
1969.321136  	-0.001384 
1971.249952  	-0.002082 
1973.178768  	-0.002723 
1975.107584  	-0.002659 
1977.036400  	-0.000615 
1978.965216  	0.001515 
1980.894032  	0.001468 
1982.822848  	0.000376 
1984.751664  	0.000195 
1986.680480  	0.000100 
1988.609296  	0.000065 
1990.538112  	0.000085 
1992.466928  	0.000211 
1994.395744  	-0.000802 
1996.324560  	-0.001557 
1998.253376  	-0.001438 
2000.182192  	-0.000823 
2002.111008  	-0.001590 
2004.039824  	-0.002245 
2005.968640  	-0.001227 
2007.897456  	0.000081 
2009.826272  	0.000125 
2011.755088  	0.000512 
2013.683904  	-0.000189 
2015.612720  	-0.001229 
2017.541536  	-0.000414 
2019.470352  	0.000335 
2021.399168  	0.000403 
2023.327984  	0.000518 
2025.256800  	-0.001120 
2027.185616  	-0.002108 
2029.114432  	-0.001512 
2031.043248  	-0.000721 
2032.972064  	-0.000433 
2034.900880  	-0.000030 
2036.829696  	-0.000099 
2038.758512  	0.000454 
2040.687328  	-0.000073 
2042.616144  	-0.001231 
2044.544960  	-0.000810 
2046.473776  	0.000561 
2048.402592  	0.001553 
2050.331408  	0.001207 
2052.260224  	-0.000205 
2054.189040  	-0.000008 
2056.117856  	-0.000307 
2058.046672  	-0.001082 
2059.975488  	-0.000908 
2061.904304  	-0.000364 
2063.833120  	-0.000016 
2065.761936  	0.000253 
2067.690752  	-0.000624 
2069.619568  	-0.001031 
2071.548384  	-0.000346 
2073.477200  	0.000032 
2075.406016  	0.000059 
2077.334832  	-0.000685 
2079.263648  	-0.001316 
2081.192464  	-0.001304 
2083.121280  	-0.000820 
2085.050096  	-0.000655 
2086.978912  	-0.000765 
2088.907728  	-0.000802 
2090.836544  	-0.001248 
2092.765360  	-0.001506 
2094.694176  	-0.001151 
2096.622992  	-0.000604 
2098.551808  	-0.000729 
2100.480624  	-0.000672 
2102.409440  	-0.000503 
2104.338256  	-0.000182 
2106.267072  	-0.000139 
2108.195888  	-0.000088 
2110.124704  	-0.000288 
2112.053520  	-0.000513 
2113.982336  	-0.000997 
2115.911152  	-0.000899 
2117.839968  	-0.000877 
2119.768784  	-0.001285 
2121.697600  	-0.001890 
2123.626416  	-0.001729 
2125.555232  	-0.001933 
2127.484048  	-0.001844 
2129.412864  	-0.001700 
2131.341680  	-0.002345 
2133.270496  	-0.002915 
2135.199312  	-0.002494 
2137.128128  	-0.001966 
2139.056944  	-0.001327 
2140.985760  	-0.001611 
2142.914576  	-0.001710 
2144.843392  	-0.001824 
2146.772208  	-0.001844 
2148.701024  	-0.001644 
2150.629840  	-0.001795 
2152.558656  	-0.003627 
2154.487472  	-0.004803 
2156.416288  	-0.004713 
2158.345104  	-0.002408 
2160.273920  	0.001420 
2162.202736  	0.001570 
2164.131552  	0.000955 
2166.060368  	0.001995 
2167.989184  	0.001150 
2169.918000  	-0.000038 
2171.846816  	0.000372 
2173.775632  	0.001285 
2175.704448  	0.001141 
2177.633264  	0.001236 
2179.562080  	0.000448 
2181.490896  	0.001012 
2183.419712  	0.002735 
2185.348528  	0.002113 
2187.277344  	0.000514 
2189.206160  	-0.000028 
2191.134976  	0.000231 
2193.063792  	0.000422 
2194.992608  	0.000666 
2196.921424  	-0.000083 
2198.850240  	-0.000755 
2200.779056  	0.000218 
2202.707872  	0.000814 
2204.636688  	0.000041 
2206.565504  	-0.001005 
2208.494320  	-0.000909 
2210.423136  	-0.000289 
2212.351952  	0.000147 
2214.280768  	0.000189 
2216.209584  	-0.000127 
2218.138400  	-0.000168 
2220.067216  	0.000414 
2221.996032  	0.000156 
2223.924848  	-0.000458 
2225.853664  	-0.000237 
2227.782480  	0.000005 
2229.711296  	0.000030 
2231.640112  	0.000097 
2233.568928  	-0.000862 
2235.497744  	-0.001127 
2237.426560  	-0.000399 
2239.355376  	-0.000438 
2241.284192  	-0.000357 
2243.213008  	0.000226 
2245.141824  	-0.000002 
2247.070640  	-0.000376 
2248.999456  	-0.001079 
2250.928272  	-0.001610 
2252.857088  	-0.001177 
2254.785904  	-0.000537 
2256.714720  	-0.000694 
2258.643536  	-0.000878 
2260.572352  	-0.000840 
2262.501168  	-0.000707 
2264.429984  	-0.000249 
2266.358800  	-0.000189 
2268.287616  	-0.000277 
2270.216432  	-0.000489 
2272.145248  	-0.000789 
2274.074064  	-0.000575 
2276.002880  	0.000004 
2277.931696  	0.000445 
2279.860512  	0.000478 
2281.789328  	0.000777 
2283.718144  	0.000720 
2285.646960  	0.000675 
2287.575776  	0.000728 
2289.504592  	0.000403 
2291.433408  	-0.000051 
2293.362224  	-0.000230 
2295.291040  	-0.000266 
2297.219856  	-0.000333 
2299.148672  	-0.000442 
2301.077488  	-0.000457 
2303.006304  	-0.000657 
2304.935120  	-0.000788 
2306.863936  	-0.000839 
2308.792752  	-0.000938 
2310.721568  	-0.001185 
2312.650384  	-0.001504 
2314.579200  	-0.001925 
2316.508016  	-0.002548 
2318.436832  	-0.003277 
2320.365648  	-0.003400 
2322.294464  	-0.003050 
2324.223280  	-0.003678 
2326.152096  	-0.005110 
2328.080912  	-0.006284 
2330.009728  	-0.007018 
2331.938544  	-0.007244 
2333.867360  	-0.007213 
2335.796176  	-0.007565 
2337.724992  	-0.008317 
2339.653808  	-0.008371 
2341.582624  	-0.008570 
2343.511440  	-0.008375 
2345.440256  	-0.006687 
2347.369072  	-0.004834 
2349.297888  	-0.004605 
2351.226704  	-0.006035 
2353.155520  	-0.007922 
2355.084336  	-0.009548 
2357.013152  	-0.011169 
2358.941968  	-0.011962 
2360.870784  	-0.011878 
2362.799600  	-0.011265 
2364.728416  	-0.010434 
2366.657232  	-0.009709 
2368.586048  	-0.008663 
2370.514864  	-0.006951 
2372.443680  	-0.005251 
2374.372496  	-0.003666 
2376.301312  	-0.002611 
2378.230128  	-0.001539 
2380.158944  	-0.001099 
2382.087760  	-0.000949 
2384.016576  	-0.000745 
2385.945392  	-0.000582 
2387.874208  	-0.000564 
2389.803024  	-0.000681 
2391.731840  	-0.000740 
2393.660656  	-0.000632 
2395.589472  	-0.000572 
2397.518288  	-0.000300 
2399.447104  	-0.000136 
2401.375920  	-0.000283 
2403.304736  	-0.000617 
2405.233552  	-0.000477 
2407.162368  	-0.000420 
2409.091184  	-0.000354 
2411.020000  	-0.000384 
2412.948816  	-0.000395 
2414.877632  	-0.000450 
2416.806448  	-0.000332 
2418.735264  	-0.000126 
2420.664080  	-0.000173 
2422.592896  	-0.000309 
2424.521712  	-0.000575 
2426.450528  	-0.000635 
2428.379344  	-0.000317 
2430.308160  	-0.000026 
2432.236976  	-0.000032 
2434.165792  	-0.000189 
2436.094608  	-0.000296 
2438.023424  	-0.000180 
2439.952240  	0.000126 
2441.881056  	0.000183 
2443.809872  	0.000250 
2445.738688  	0.000318 
2447.667504  	0.000299 
2449.596320  	0.000203 
2451.525136  	0.000177 
2453.453952  	0.000286 
2455.382768  	0.000407 
2457.311584  	0.000484 
2459.240400  	0.000546 
2461.169216  	0.000441 
2463.098032  	0.000254 
2465.026848  	0.000200 
2466.955664  	0.000195 
2468.884480  	0.000265 
2470.813296  	0.000349 
2472.742112  	0.000350 
2474.670928  	0.000572 
2476.599744  	0.000578 
2478.528560  	0.000586 
2480.457376  	0.000553 
2482.386192  	0.000423 
2484.315008  	0.000532 
2486.243824  	0.000487 
2488.172640  	0.000523 
2490.101456  	0.000680 
2492.030272  	0.000560 
2493.959088  	0.000490 
2495.887904  	0.000740 
2497.816720  	0.001006 
2499.745536  	0.000792 
2501.674352  	0.000701 
2503.603168  	0.000737 
2505.531984  	0.000662 
2507.460800  	0.000606 
2509.389616  	0.000967 
2511.318432  	0.001136 
2513.247248  	0.000926 
2515.176064  	0.000933 
2517.104880  	0.000768 
2519.033696  	0.000740 
2520.962512  	0.000919 
2522.891328  	0.001075 
2524.820144  	0.001081 
2526.748960  	0.001137 
2528.677776  	0.001103 
2530.606592  	0.001093 
2532.535408  	0.001227 
2534.464224  	0.001186 
2536.393040  	0.001116 
2538.321856  	0.001213 
2540.250672  	0.001383 
2542.179488  	0.001377 
2544.108304  	0.001226 
2546.037120  	0.001121 
2547.965936  	0.001298 
2549.894752  	0.001394 
2551.823568  	0.001420 
2553.752384  	0.001436 
2555.681200  	0.001414 
2557.610016  	0.001500 
2559.538832  	0.001713 
2561.467648  	0.001668 
2563.396464  	0.001603 
2565.325280  	0.001758 
2567.254096  	0.002008 
2569.182912  	0.001918 
2571.111728  	0.001875 
2573.040544  	0.001892 
2574.969360  	0.001832 
2576.898176  	0.001808 
2578.826992  	0.002003 
2580.755808  	0.002118 
2582.684624  	0.002039 
2584.613440  	0.002005 
2586.542256  	0.002088 
2588.471072  	0.002138 
2590.399888  	0.002221 
2592.328704  	0.001952 
2594.257520  	0.001901 
2596.186336  	0.002007 
2598.115152  	0.002227 
2600.043968  	0.002447 
2601.972784  	0.002434 
2603.901600  	0.002354 
2605.830416  	0.002401 
2607.759232  	0.002375 
2609.688048  	0.002314 
2611.616864  	0.002432 
2613.545680  	0.002553 
2615.474496  	0.002700 
2617.403312  	0.002629 
2619.332128  	0.002506 
2621.260944  	0.002565 
2623.189760  	0.002684 
2625.118576  	0.002718 
2627.047392  	0.002845 
2628.976208  	0.003041 
2630.905024  	0.003011 
2632.833840  	0.003038 
2634.762656  	0.002974 
2636.691472  	0.003085 
2638.620288  	0.003237 
2640.549104  	0.003257 
2642.477920  	0.003434 
2644.406736  	0.003487 
2646.335552  	0.003427 
2648.264368  	0.003450 
2650.193184  	0.003619 
2652.122000  	0.003684 
2654.050816  	0.003626 
2655.979632  	0.003585 
2657.908448  	0.003563 
2659.837264  	0.003559 
2661.766080  	0.003423 
2663.694896  	0.003298 
2665.623712  	0.003358 
2667.552528  	0.003414 
2669.481344  	0.003412 
2671.410160  	0.003425 
2673.338976  	0.003509 
2675.267792  	0.003496 
2677.196608  	0.003566 
2679.125424  	0.003675 
2681.054240  	0.003714 
2682.983056  	0.003951 
2684.911872  	0.003953 
2686.840688  	0.003800 
2688.769504  	0.003819 
2690.698320  	0.003922 
2692.627136  	0.004007 
2694.555952  	0.004038 
2696.484768  	0.004064 
2698.413584  	0.004171 
2700.342400  	0.004236 
2702.271216  	0.004191 
2704.200032  	0.004183 
2706.128848  	0.004283 
2708.057664  	0.004306 
2709.986480  	0.004381 
2711.915296  	0.004467 
2713.844112  	0.004503 
2715.772928  	0.004457 
2717.701744  	0.004553 
2719.630560  	0.004646 
2721.559376  	0.004734 
2723.488192  	0.004854 
2725.417008  	0.004869 
2727.345824  	0.004849 
2729.274640  	0.004933 
2731.203456  	0.004923 
2733.132272  	0.004961 
2735.061088  	0.005038 
2736.989904  	0.004993 
2738.918720  	0.004918 
2740.847536  	0.004861 
2742.776352  	0.004941 
2744.705168  	0.005065 
2746.633984  	0.005061 
2748.562800  	0.005098 
2750.491616  	0.005194 
2752.420432  	0.005176 
2754.349248  	0.005136 
2756.278064  	0.005333 
2758.206880  	0.005505 
2760.135696  	0.005464 
2762.064512  	0.005353 
2763.993328  	0.005357 
2765.922144  	0.005396 
2767.850960  	0.005388 
2769.779776  	0.005462 
2771.708592  	0.005450 
2773.637408  	0.005434 
2775.566224  	0.005397 
2777.495040  	0.005495 
2779.423856  	0.005695 
2781.352672  	0.005702 
2783.281488  	0.005614 
2785.210304  	0.005662 
2787.139120  	0.005614 
2789.067936  	0.005557 
2790.996752  	0.005659 
2792.925568  	0.005715 
2794.854384  	0.005765 
2796.783200  	0.005824 
2798.712016  	0.005824 
2800.640832  	0.005958 
2802.569648  	0.005950 
2804.498464  	0.005912 
2806.427280  	0.006011 
2808.356096  	0.006110 
2810.284912  	0.006032 
2812.213728  	0.006109 
2814.142544  	0.006148 
2816.071360  	0.006122 
2818.000176  	0.006193 
2819.928992  	0.006170 
2821.857808  	0.006196 
2823.786624  	0.006303 
2825.715440  	0.006468 
2827.644256  	0.006535 
2829.573072  	0.006506 
2831.501888  	0.006630 
2833.430704  	0.006715 
2835.359520  	0.006688 
2837.288336  	0.006754 
2839.217152  	0.006631 
2841.145968  	0.006490 
2843.074784  	0.006470 
2845.003600  	0.006610 
2846.932416  	0.007048 
2848.861232  	0.007450 
2850.790048  	0.007246 
2852.718864  	0.006478 
2854.647680  	0.005708 
2856.576496  	0.005084 
2858.505312  	0.004576 
2860.434128  	0.003993 
2862.362944  	0.003540 
2864.291760  	0.003269 
2866.220576  	0.003056 
2868.149392  	0.002899 
2870.078208  	0.002829 
2872.007024  	0.002794 
2873.935840  	0.002765 
2875.864656  	0.002658 
2877.793472  	0.002486 
2879.722288  	0.002297 
2881.651104  	0.001935 
2883.579920  	0.001493 
2885.508736  	0.001469 
2887.437552  	0.001764 
2889.366368  	0.001810 
2891.295184  	0.001682 
2893.224000  	0.001691 
2895.152816  	0.001811 
2897.081632  	0.001751 
2899.010448  	0.000919 
2900.939264  	0.000319 
2902.868080  	0.001280 
2904.796896  	0.002237 
2906.725712  	0.002696 
2908.654528  	0.003253 
2910.583344  	0.003753 
2912.512160  	0.004769 
2914.440976  	0.006312 
2916.369792  	0.007304 
2918.298608  	0.007621 
2920.227424  	0.007490 
2922.156240  	0.007212 
2924.085056  	0.007200 
2926.013872  	0.007204 
2927.942688  	0.007037 
2929.871504  	0.006854 
2931.800320  	0.006867 
2933.729136  	0.006777 
2935.657952  	0.006530 
2937.586768  	0.006412 
2939.515584  	0.006353 
2941.444400  	0.006316 
2943.373216  	0.006292 
2945.302032  	0.006421 
2947.230848  	0.006670 
2949.159664  	0.006809 
2951.088480  	0.006609 
2953.017296  	0.006334 
2954.946112  	0.005991 
2956.874928  	0.005543 
2958.803744  	0.005011 
2960.732560  	0.004416 
2962.661376  	0.003822 
2964.590192  	0.003157 
2966.519008  	0.002155 
2968.447824  	0.001202 
2970.376640  	0.000669 
2972.305456  	0.000201 
2974.234272  	0.000020 
2976.163088  	-0.000100 
2978.091904  	-0.000331 
2980.020720  	-0.000447 
2981.949536  	-0.000273 
2983.878352  	-0.000435 
2985.807168  	-0.001215 
2987.735984  	-0.001902 
2989.664800  	-0.001555 
2991.593616  	0.000068 
2993.522432  	0.000997 
2995.451248  	0.001285 
2997.380064  	0.001770 
2999.308880  	0.002287 
3001.237696  	0.002874 
3003.166512  	0.003540 
3005.095328  	0.004368 
3007.024144  	0.005021 
3008.952960  	0.005673 
3010.881776  	0.006472 
3012.810592  	0.007295 
3014.739408  	0.008116 
3016.668224  	0.008463 
3018.597040  	0.008771 
3020.525856  	0.009319 
3022.454672  	0.009968 
3024.383488  	0.010446 
3026.312304  	0.010873 
3028.241120  	0.011289 
3030.169936  	0.011758 
3032.098752  	0.012272 
3034.027568  	0.012558 
3035.956384  	0.012870 
3037.885200  	0.013196 
3039.814016  	0.013526 
3041.742832  	0.013849 
3043.671648  	0.013973 
3045.600464  	0.014203 
3047.529280  	0.014569 
3049.458096  	0.014771 
3051.386912  	0.014629 
3053.315728  	0.014635 
3055.244544  	0.014947 
3057.173360  	0.015198 
3059.102176  	0.015304 
3061.030992  	0.015411 
3062.959808  	0.015572 
3064.888624  	0.015900 
3066.817440  	0.016205 
3068.746256  	0.016463 
3070.675072  	0.016665 
3072.603888  	0.016786 
3074.532704  	0.016830 
3076.461520  	0.017048 
3078.390336  	0.017290 
3080.319152  	0.017446 
3082.247968  	0.017730 
3084.176784  	0.017990 
3086.105600  	0.018150 
3088.034416  	0.018395 
3089.963232  	0.018569 
3091.892048  	0.018750 
3093.820864  	0.018839 
3095.749680  	0.018945 
3097.678496  	0.019143 
3099.607312  	0.019453 
3101.536128  	0.019679 
3103.464944  	0.019993 
3105.393760  	0.020124 
3107.322576  	0.020158 
3109.251392  	0.020445 
3111.180208  	0.020657 
3113.109024  	0.020834 
3115.037840  	0.021043 
3116.966656  	0.021171 
3118.895472  	0.021349 
3120.824288  	0.021549 
3122.753104  	0.021697 
3124.681920  	0.021728 
3126.610736  	0.021691 
3128.539552  	0.021953 
3130.468368  	0.022370 
3132.397184  	0.022602 
3134.326000  	0.022692 
3136.254816  	0.022701 
3138.183632  	0.022820 
3140.112448  	0.023067 
3142.041264  	0.023226 
3143.970080  	0.023342 
3145.898896  	0.023513 
3147.827712  	0.023506 
3149.756528  	0.023489 
3151.685344  	0.023750 
3153.614160  	0.024141 
3155.542976  	0.024357 
3157.471792  	0.024393 
3159.400608  	0.024611 
3161.329424  	0.024871 
3163.258240  	0.024890 
3165.187056  	0.025078 
3167.115872  	0.025331 
3169.044688  	0.025468 
3170.973504  	0.025543 
3172.902320  	0.025647 
3174.831136  	0.025817 
3176.759952  	0.025940 
3178.688768  	0.025977 
3180.617584  	0.026234 
3182.546400  	0.026339 
3184.475216  	0.026387 
3186.404032  	0.026555 
3188.332848  	0.026586 
3190.261664  	0.026516 
3192.190480  	0.026490 
3194.119296  	0.026575 
3196.048112  	0.026639 
3197.976928  	0.026727 
3199.905744  	0.026690 
3201.834560  	0.026758 
3203.763376  	0.026800 
3205.692192  	0.026760 
3207.621008  	0.026572 
3209.549824  	0.026410 
3211.478640  	0.026344 
3213.407456  	0.026504 
3215.336272  	0.026673 
3217.265088  	0.026561 
3219.193904  	0.026367 
3221.122720  	0.026430 
3223.051536  	0.026263 
3224.980352  	0.025963 
3226.909168  	0.025912 
3228.837984  	0.025951 
3230.766800  	0.025946 
3232.695616  	0.025821 
3234.624432  	0.025657 
3236.553248  	0.025607 
3238.482064  	0.025731 
3240.410880  	0.025772 
3242.339696  	0.025595 
3244.268512  	0.025430 
3246.197328  	0.025519 
3248.126144  	0.025497 
3250.054960  	0.025560 
3251.983776  	0.025678 
3253.912592  	0.025857 
3255.841408  	0.025963 
3257.770224  	0.025926 
3259.699040  	0.026011 
3261.627856  	0.025853 
3263.556672  	0.025818 
3265.485488  	0.026113 
3267.414304  	0.026227 
3269.343120  	0.026183 
3271.271936  	0.026167 
3273.200752  	0.026227 
3275.129568  	0.026473 
3277.058384  	0.026577 
3278.987200  	0.026552 
3280.916016  	0.026514 
3282.844832  	0.026642 
3284.773648  	0.026797 
3286.702464  	0.026908 
3288.631280  	0.027078 
3290.560096  	0.027134 
3292.488912  	0.027143 
3294.417728  	0.027261 
3296.346544  	0.027369 
3298.275360  	0.027591 
3300.204176  	0.027792 
3302.132992  	0.027948 
3304.061808  	0.028329 
3305.990624  	0.028524 
3307.919440  	0.028526 
3309.848256  	0.028747 
3311.777072  	0.028891 
3313.705888  	0.028841 
3315.634704  	0.028934 
3317.563520  	0.029121 
3319.492336  	0.029374 
3321.421152  	0.029595 
3323.349968  	0.029573 
3325.278784  	0.029470 
3327.207600  	0.029689 
3329.136416  	0.029848 
3331.065232  	0.029839 
3332.994048  	0.029847 
3334.922864  	0.029870 
3336.851680  	0.030134 
3338.780496  	0.030331 
3340.709312  	0.030252 
3342.638128  	0.030310 
3344.566944  	0.030429 
3346.495760  	0.030416 
3348.424576  	0.030117 
3350.353392  	0.030032 
3352.282208  	0.029981 
3354.211024  	0.029812 
3356.139840  	0.029718 
3358.068656  	0.029805 
3359.997472  	0.029809 
3361.926288  	0.029649 
3363.855104  	0.029420 
3365.783920  	0.029221 
3367.712736  	0.028972 
3369.641552  	0.028896 
3371.570368  	0.028809 
3373.499184  	0.028732 
3375.428000  	0.028579 
3377.356816  	0.028333 
3379.285632  	0.028105 
3381.214448  	0.027857 
3383.143264  	0.027608 
3385.072080  	0.027451 
3387.000896  	0.027191 
3388.929712  	0.027015 
3390.858528  	0.026815 
3392.787344  	0.026814 
3394.716160  	0.026884 
3396.644976  	0.026940 
3398.573792  	0.026821 
3400.502608  	0.026639 
3402.431424  	0.026433 
3404.360240  	0.026267 
3406.289056  	0.025912 
3408.217872  	0.025547 
3410.146688  	0.025528 
3412.075504  	0.025609 
3414.004320  	0.025491 
3415.933136  	0.025223 
3417.861952  	0.024868 
3419.790768  	0.024871 
3421.719584  	0.025002 
3423.648400  	0.024821 
3425.577216  	0.024680 
3427.506032  	0.024539 
3429.434848  	0.024252 
3431.363664  	0.024071 
3433.292480  	0.023944 
3435.221296  	0.023693 
3437.150112  	0.023491 
3439.078928  	0.023487 
3441.007744  	0.023432 
3442.936560  	0.023250 
3444.865376  	0.022721 
3446.794192  	0.022546 
3448.723008  	0.022545 
3450.651824  	0.022311 
3452.580640  	0.022016 
3454.509456  	0.021729 
3456.438272  	0.021625 
3458.367088  	0.021508 
3460.295904  	0.021166 
3462.224720  	0.020782 
3464.153536  	0.020543 
3466.082352  	0.020251 
3468.011168  	0.019981 
3469.939984  	0.019918 
3471.868800  	0.019556 
3473.797616  	0.019071 
3475.726432  	0.018858 
3477.655248  	0.018585 
3479.584064  	0.018467 
3481.512880  	0.018398 
3483.441696  	0.017827 
3485.370512  	0.017375 
3487.299328  	0.017299 
3489.228144  	0.017073 
3491.156960  	0.016677 
3493.085776  	0.016466 
3495.014592  	0.016224 
3496.943408  	0.015989 
3498.872224  	0.015745 
3500.801040  	0.015741 
3502.729856  	0.015731 
3504.658672  	0.015264 
3506.587488  	0.014588 
3508.516304  	0.014190 
3510.445120  	0.014118 
3512.373936  	0.014132 
3514.302752  	0.013951 
3516.231568  	0.013794 
3518.160384  	0.013662 
3520.089200  	0.013510 
3522.018016  	0.013444 
3523.946832  	0.013346 
3525.875648  	0.012787 
3527.804464  	0.012329 
3529.733280  	0.012062 
3531.662096  	0.011830 
3533.590912  	0.011657 
3535.519728  	0.011691 
3537.448544  	0.011633 
3539.377360  	0.011284 
3541.306176  	0.011100 
3543.234992  	0.011084 
3545.163808  	0.011280 
3547.092624  	0.011145 
3549.021440  	0.010585 
3550.950256  	0.010132 
3552.879072  	0.010020 
3554.807888  	0.009822 
3556.736704  	0.009603 
3558.665520  	0.009505 
3560.594336  	0.009349 
3562.523152  	0.008975 
3564.451968  	0.008667 
3566.380784  	0.009245 
3568.309600  	0.009623 
3570.238416  	0.008651 
3572.167232  	0.007714 
3574.096048  	0.007495 
3576.024864  	0.007421 
3577.953680  	0.007043 
3579.882496  	0.006832 
3581.811312  	0.006498 
3583.740128  	0.006296 
3585.668944  	0.006589 
3587.597760  	0.007334 
3589.526576  	0.006806 
3591.455392  	0.005500 
3593.384208  	0.005251 
3595.313024  	0.005420 
3597.241840  	0.005353 
3599.170656  	0.004837 
3601.099472  	0.004599 
3603.028288  	0.004206 
3604.957104  	0.003736 
3606.885920  	0.003653 
3608.814736  	0.003674 
3610.743552  	0.003250 
3612.672368  	0.003057 
3614.601184  	0.002774 
3616.530000  	0.002069 
3618.458816  	0.001888 
3620.387632  	0.001856 
3622.316448  	0.001047 
3624.245264  	0.000526 
3626.174080  	-0.000003 
3628.102896  	0.000120 
3630.031712  	0.001024 
3631.960528  	-0.000246 
3633.889344  	-0.000758 
3635.818160  	-0.001078 
3637.746976  	-0.001377 
3639.675792  	-0.001692 
3641.604608  	-0.002321 
3643.533424  	-0.002895 
3645.462240  	-0.003565 
3647.391056  	-0.003699 
3649.319872  	-0.003214 
3651.248688  	-0.002876 
3653.177504  	-0.004298 
3655.106320  	-0.005191 
3657.035136  	-0.005244 
3658.963952  	-0.005735 
3660.892768  	-0.006059 
3662.821584  	-0.006185 
3664.750400  	-0.006197 
3666.679216  	-0.006700 
3668.608032  	-0.007043 
3670.536848  	-0.006039 
3672.465664  	-0.006681 
3674.394480  	-0.007369 
3676.323296  	-0.006072 
3678.252112  	-0.006085 
3680.180928  	-0.006037 
3682.109744  	-0.006570 
3684.038560  	-0.006975 
3685.967376  	-0.007199 
3687.896192  	-0.006702 
3689.825008  	-0.005961 
3691.753824  	-0.006189 
3693.682640  	-0.006656 
3695.611456  	-0.006652 
3697.540272  	-0.006323 
3699.469088  	-0.006257 
3701.397904  	-0.005631 
3703.326720  	-0.005140 
3705.255536  	-0.005448 
3707.184352  	-0.005677 
3709.113168  	-0.005686 
3711.041984  	-0.004772 
3712.970800  	-0.003720 
3714.899616  	-0.004219 
3716.828432  	-0.004773 
3718.757248  	-0.004826 
3720.686064  	-0.004778 
3722.614880  	-0.004484 
3724.543696  	-0.004547 
3726.472512  	-0.004316 
3728.401328  	-0.004586 
3730.330144  	-0.005612 
3732.258960  	-0.005578 
3734.187776  	-0.004638 
3736.116592  	-0.003561 
3738.045408  	-0.003897 
3739.974224  	-0.004525 
3741.903040  	-0.005287 
3743.831856  	-0.004532 
3745.760672  	-0.003306 
3747.689488  	-0.004823 
3749.618304  	-0.004780 
3751.547120  	-0.003780 
3753.475936  	-0.003356 
3755.404752  	-0.004058 
3757.333568  	-0.004308 
3759.262384  	-0.004153 
3761.191200  	-0.003925 
3763.120016  	-0.004365 
3765.048832  	-0.004181 
3766.977648  	-0.004297 
3768.906464  	-0.004409 
3770.835280  	-0.003533 
3772.764096  	-0.003819 
3774.692912  	-0.004361 
3776.621728  	-0.004586 
3778.550544  	-0.004306 
3780.479360  	-0.003807 
3782.408176  	-0.004226 
3784.336992  	-0.004136 
3786.265808  	-0.004040 
3788.194624  	-0.004171 
3790.123440  	-0.004165 
3792.052256  	-0.004176 
3793.981072  	-0.004259 
3795.909888  	-0.004031 
3797.838704  	-0.004317 
3799.767520  	-0.005194 
3801.696336  	-0.004145 
3803.625152  	-0.003954 
3805.553968  	-0.004590 
3807.482784  	-0.003812 
3809.411600  	-0.004045 
3811.340416  	-0.004358 
3813.269232  	-0.004918 
3815.198048  	-0.004988 
3817.126864  	-0.004159 
3819.055680  	-0.004862 
3820.984496  	-0.004308 
3822.913312  	-0.003771 
3824.842128  	-0.004499 
3826.770944  	-0.004333 
3828.699760  	-0.004556 
3830.628576  	-0.004922 
3832.557392  	-0.004907 
3834.486208  	-0.005022 
3836.415024  	-0.004678 
3838.343840  	-0.003818 
3840.272656  	-0.003657 
3842.201472  	-0.003891 
3844.130288  	-0.003994 
3846.059104  	-0.004292 
3847.987920  	-0.004663 
3849.916736  	-0.004894 
3851.845552  	-0.004824 
3853.774368  	-0.003149 
3855.703184  	-0.003240 
3857.632000  	-0.004053 
3859.560816  	-0.004626 
3861.489632  	-0.004754 
3863.418448  	-0.004529 
3865.347264  	-0.004089 
3867.276080  	-0.004721 
3869.204896  	-0.004551 
3871.133712  	-0.003487 
3873.062528  	-0.003990 
3874.991344  	-0.003828 
3876.920160  	-0.004408 
3878.848976  	-0.004514 
3880.777792  	-0.003682 
3882.706608  	-0.004192 
3884.635424  	-0.004485 
3886.564240  	-0.003651 
3888.493056  	-0.004316 
3890.421872  	-0.004360 
3892.350688  	-0.003911 
3894.279504  	-0.004429 
3896.208320  	-0.004974 
3898.137136  	-0.004607 
3900.065952  	-0.003794 
3901.994768  	-0.003709 
3903.923584  	-0.003518 
3905.852400  	-0.003449 
3907.781216  	-0.004159 
3909.710032  	-0.004501 
3911.638848  	-0.004405 
3913.567664  	-0.004586 
3915.496480  	-0.004588 
3917.425296  	-0.004125 
3919.354112  	-0.004004 
3921.282928  	-0.004017 
3923.211744  	-0.004195 
3925.140560  	-0.004021 
3927.069376  	-0.004201 
3928.998192  	-0.004308 
3930.927008  	-0.003915 
3932.855824  	-0.003651 
3934.784640  	-0.004165 
3936.713456  	-0.004356 
3938.642272  	-0.004270 
3940.571088  	-0.004240 
3942.499904  	-0.003855 
3944.428720  	-0.003761 
3946.357536  	-0.004130 
3948.286352  	-0.004087 
3950.215168  	-0.003983 
3952.143984  	-0.004135 
3954.072800  	-0.004253 
3956.001616  	-0.004212 
3957.930432  	-0.004300 
3959.859248  	-0.004205 
3961.788064  	-0.004025 
3963.716880  	-0.004316 
3965.645696  	-0.004757 
3967.574512  	-0.004615 
3969.503328  	-0.004312 
3971.432144  	-0.004284 
3973.360960  	-0.004412 
3975.289776  	-0.004491 
3977.218592  	-0.004462 
3979.147408  	-0.004449 
3981.076224  	-0.004262 
3983.005040  	-0.004185 
3984.933856  	-0.004205 
3986.862672  	-0.004304 
3988.791488  	-0.004335 
3990.720304  	-0.004180 
3992.649120  	-0.004278 
3994.577936  	-0.004381 
3996.506752  	-0.004208 
3998.435568  	-0.004101 
4000.364384  	-0.004152 