##TITLE=No Description
##DATA TYPE=INFRARED SPECTRUM
##XUNITS=1/CM
##YUNITS=Abs
399.264912  	0.219781 
401.193728  	0.220165 
403.122544  	0.225661 
405.051360  	0.225337 
406.980176  	0.224123 
408.908992  	0.217468 
410.837808  	0.214524 
412.766624  	0.213486 
414.695440  	0.214657 
416.624256  	0.210202 
418.553072  	0.209529 
420.481888  	0.206484 
422.410704  	0.208333 
424.339520  	0.210390 
426.268336  	0.212026 
428.197152  	0.212308 
430.125968  	0.211346 
432.054784  	0.205586 
433.983600  	0.204439 
435.912416  	0.201027 
437.841232  	0.199662 
439.770048  	0.198814 
441.698864  	0.198722 
443.627680  	0.197725 
445.556496  	0.199995 
447.485312  	0.197867 
449.414128  	0.195155 
451.342944  	0.192725 
453.271760  	0.196406 
455.200576  	0.199049 
457.129392  	0.199666 
459.058208  	0.196667 
460.987024  	0.197086 
462.915840  	0.197541 
464.844656  	0.201984 
466.773472  	0.201782 
468.702288  	0.197960 
470.631104  	0.196690 
472.559920  	0.198806 
474.488736  	0.197940 
476.417552  	0.198829 
478.346368  	0.198081 
480.275184  	0.196489 
482.204000  	0.197000 
484.132816  	0.200627 
486.061632  	0.199589 
487.990448  	0.200064 
489.919264  	0.201222 
491.848080  	0.202016 
493.776896  	0.201666 
495.705712  	0.203910 
497.634528  	0.201925 
499.563344  	0.201225 
501.492160  	0.202070 
503.420976  	0.202934 
505.349792  	0.202191 
507.278608  	0.202978 
509.207424  	0.205330 
511.136240  	0.207950 
513.065056  	0.207958 
514.993872  	0.208701 
516.922688  	0.207652 
518.851504  	0.209721 
520.780320  	0.211160 
522.709136  	0.212227 
524.637952  	0.212680 
526.566768  	0.213949 
528.495584  	0.214634 
530.424400  	0.213759 
532.353216  	0.212883 
534.282032  	0.213703 
536.210848  	0.214155 
538.139664  	0.214055 
540.068480  	0.212182 
541.997296  	0.210634 
543.926112  	0.209060 
545.854928  	0.209969 
547.783744  	0.210080 
549.712560  	0.209795 
551.641376  	0.209038 
553.570192  	0.208134 
555.499008  	0.207669 
557.427824  	0.207768 
559.356640  	0.207274 
561.285456  	0.206423 
563.214272  	0.205138 
565.143088  	0.204330 
567.071904  	0.203672 
569.000720  	0.203420 
570.929536  	0.202349 
572.858352  	0.202352 
574.787168  	0.201512 
576.715984  	0.201061 
578.644800  	0.200189 
580.573616  	0.199654 
582.502432  	0.198756 
584.431248  	0.198218 
586.360064  	0.196753 
588.288880  	0.195608 
590.217696  	0.195238 
592.146512  	0.195365 
594.075328  	0.194774 
596.004144  	0.194237 
597.932960  	0.193316 
599.861776  	0.192237 
601.790592  	0.191972 
603.719408  	0.192349 
605.648224  	0.191671 
607.577040  	0.191231 
609.505856  	0.191203 
611.434672  	0.191400 
613.363488  	0.190781 
615.292304  	0.190127 
617.221120  	0.189249 
619.149936  	0.189493 
621.078752  	0.189355 
623.007568  	0.188557 
624.936384  	0.187813 
626.865200  	0.187562 
628.794016  	0.187119 
630.722832  	0.186995 
632.651648  	0.187192 
634.580464  	0.187040 
636.509280  	0.186706 
638.438096  	0.186477 
640.366912  	0.186210 
642.295728  	0.186206 
644.224544  	0.185903 
646.153360  	0.185442 
648.082176  	0.184011 
650.010992  	0.182690 
651.939808  	0.181096 
653.868624  	0.179912 
655.797440  	0.178918 
657.726256  	0.177953 
659.655072  	0.176431 
661.583888  	0.174814 
663.512704  	0.173414 
665.441520  	0.172623 
667.370336  	0.169516 
669.299152  	0.167183 
671.227968  	0.167267 
673.156784  	0.166319 
675.085600  	0.165259 
677.014416  	0.164566 
678.943232  	0.163291 
680.872048  	0.161986 
682.800864  	0.161315 
684.729680  	0.161370 
686.658496  	0.160733 
688.587312  	0.160141 
690.516128  	0.159489 
692.444944  	0.158469 
694.373760  	0.157693 
696.302576  	0.157364 
698.231392  	0.156401 
700.160208  	0.155464 
702.089024  	0.154362 
704.017840  	0.152919 
705.946656  	0.151265 
707.875472  	0.149968 
709.804288  	0.148606 
711.733104  	0.147961 
713.661920  	0.147639 
715.590736  	0.147006 
717.519552  	0.146256 
719.448368  	0.145752 
721.377184  	0.145339 
723.306000  	0.145350 
725.234816  	0.145366 
727.163632  	0.144696 
729.092448  	0.143609 
731.021264  	0.142599 
732.950080  	0.141497 
734.878896  	0.140536 
736.807712  	0.139003 
738.736528  	0.137696 
740.665344  	0.136830 
742.594160  	0.136234 
744.522976  	0.135298 
746.451792  	0.134670 
748.380608  	0.133798 
750.309424  	0.132828 
752.238240  	0.132169 
754.167056  	0.132045 
756.095872  	0.131470 
758.024688  	0.130735 
759.953504  	0.130098 
761.882320  	0.129947 
763.811136  	0.129455 
765.739952  	0.128800 
767.668768  	0.128048 
769.597584  	0.126894 
771.526400  	0.126238 
773.455216  	0.126081 
775.384032  	0.126531 
777.312848  	0.127375 
779.241664  	0.128079 
781.170480  	0.128330 
783.099296  	0.127038 
785.028112  	0.125068 
786.956928  	0.122850 
788.885744  	0.120764 
790.814560  	0.119104 
792.743376  	0.117730 
794.672192  	0.116784 
796.601008  	0.116033 
798.529824  	0.114507 
800.458640  	0.112814 
802.387456  	0.111232 
804.316272  	0.109978 
806.245088  	0.109185 
808.173904  	0.108470 
810.102720  	0.107522 
812.031536  	0.106711 
813.960352  	0.106048 
815.889168  	0.105489 
817.817984  	0.104662 
819.746800  	0.103881 
821.675616  	0.103048 
823.604432  	0.102371 
825.533248  	0.101689 
827.462064  	0.100720 
829.390880  	0.099661 
831.319696  	0.098501 
833.248512  	0.097386 
835.177328  	0.096678 
837.106144  	0.095448 
839.034960  	0.094288 
840.963776  	0.093048 
842.892592  	0.091543 
844.821408  	0.089984 
846.750224  	0.088569 
848.679040  	0.087325 
850.607856  	0.086226 
852.536672  	0.085176 
854.465488  	0.084307 
856.394304  	0.083418 
858.323120  	0.082258 
860.251936  	0.080910 
862.180752  	0.079705 
864.109568  	0.078692 
866.038384  	0.077826 
867.967200  	0.076993 
869.896016  	0.076223 
871.824832  	0.075379 
873.753648  	0.075185 
875.682464  	0.075295 
877.611280  	0.074794 
879.540096  	0.074073 
881.468912  	0.074258 
883.397728  	0.074328 
885.326544  	0.073970 
887.255360  	0.073355 
889.184176  	0.072695 
891.112992  	0.071780 
893.041808  	0.071103 
894.970624  	0.070301 
896.899440  	0.069071 
898.828256  	0.067961 
900.757072  	0.067134 
902.685888  	0.066518 
904.614704  	0.066082 
906.543520  	0.066105 
908.472336  	0.066602 
910.401152  	0.067226 
912.329968  	0.067988 
914.258784  	0.068910 
916.187600  	0.069761 
918.116416  	0.070116 
920.045232  	0.070184 
921.974048  	0.069868 
923.902864  	0.069341 
925.831680  	0.068945 
927.760496  	0.068722 
929.689312  	0.068456 
931.618128  	0.068229 
933.546944  	0.067813 
935.475760  	0.067403 
937.404576  	0.067114 
939.333392  	0.066911 
941.262208  	0.066827 
943.191024  	0.067220 
945.119840  	0.067821 
947.048656  	0.068501 
948.977472  	0.069664 
950.906288  	0.071176 
952.835104  	0.072688 
954.763920  	0.074363 
956.692736  	0.075771 
958.621552  	0.076806 
960.550368  	0.077154 
962.479184  	0.077010 
964.408000  	0.076199 
966.336816  	0.074768 
968.265632  	0.072466 
970.194448  	0.069688 
972.123264  	0.066683 
974.052080  	0.063439 
975.980896  	0.059869 
977.909712  	0.056318 
979.838528  	0.053406 
981.767344  	0.050836 
983.696160  	0.048903 
985.624976  	0.047653 
987.553792  	0.046865 
989.482608  	0.046720 
991.411424  	0.047097 
993.340240  	0.047718 
995.269056  	0.048914 
997.197872  	0.050283 
999.126688  	0.051399 
1001.055504  	0.052565 
1002.984320  	0.053567 
1004.913136  	0.054617 
1006.841952  	0.055802 
1008.770768  	0.056934 
1010.699584  	0.057683 
1012.628400  	0.058074 
1014.557216  	0.058319 
1016.486032  	0.058454 
1018.414848  	0.058570 
1020.343664  	0.058524 
1022.272480  	0.058361 
1024.201296  	0.058008 
1026.130112  	0.056351 
1028.058928  	0.055364 
1029.987744  	0.056586 
1031.916560  	0.056745 
1033.845376  	0.056005 
1035.774192  	0.055058 
1037.703008  	0.054422 
1039.631824  	0.055123 
1041.560640  	0.056155 
1043.489456  	0.057388 
1045.418272  	0.059631 
1047.347088  	0.062737 
1049.275904  	0.066149 
1051.204720  	0.069731 
1053.133536  	0.073185 
1055.062352  	0.076100 
1056.991168  	0.078018 
1058.919984  	0.080502 
1060.848800  	0.083026 
1062.777616  	0.083302 
1064.706432  	0.081331 
1066.635248  	0.080028 
1068.564064  	0.080921 
1070.492880  	0.080612 
1072.421696  	0.078800 
1074.350512  	0.076979 
1076.279328  	0.075517 
1078.208144  	0.075028 
1080.136960  	0.075798 
1082.065776  	0.076828 
1083.994592  	0.077562 
1085.923408  	0.078226 
1087.852224  	0.078696 
1089.781040  	0.078930 
1091.709856  	0.079126 
1093.638672  	0.078438 
1095.567488  	0.076401 
1097.496304  	0.073770 
1099.425120  	0.071009 
1101.353936  	0.067993 
1103.282752  	0.064943 
1105.211568  	0.061905 
1107.140384  	0.059131 
1109.069200  	0.056637 
1110.998016  	0.053630 
1112.926832  	0.050807 
1114.855648  	0.048295 
1116.784464  	0.045721 
1118.713280  	0.043419 
1120.642096  	0.040908 
1122.570912  	0.038363 
1124.499728  	0.036306 
1126.428544  	0.034410 
1128.357360  	0.032460 
1130.286176  	0.030593 
1132.214992  	0.028921 
1134.143808  	0.027490 
1136.072624  	0.026277 
1138.001440  	0.025234 
1139.930256  	0.024067 
1141.859072  	0.022686 
1143.787888  	0.021483 
1145.716704  	0.020334 
1147.645520  	0.019347 
1149.574336  	0.018745 
1151.503152  	0.017984 
1153.431968  	0.017630 
1155.360784  	0.017413 
1157.289600  	0.017307 
1159.218416  	0.017200 
1161.147232  	0.017318 
1163.076048  	0.017553 
1165.004864  	0.017998 
1166.933680  	0.018421 
1168.862496  	0.018840 
1170.791312  	0.019303 
1172.720128  	0.019596 
1174.648944  	0.020103 
1176.577760  	0.020765 
1178.506576  	0.021539 
1180.435392  	0.022024 
1182.364208  	0.022465 
1184.293024  	0.023181 
1186.221840  	0.023823 
1188.150656  	0.024468 
1190.079472  	0.025377 
1192.008288  	0.026644 
1193.937104  	0.027982 
1195.865920  	0.029786 
1197.794736  	0.031583 
1199.723552  	0.033499 
1201.652368  	0.035713 
1203.581184  	0.038052 
1205.510000  	0.040138 
1207.438816  	0.042398 
1209.367632  	0.044750 
1211.296448  	0.046710 
1213.225264  	0.048524 
1215.154080  	0.050214 
1217.082896  	0.051593 
1219.011712  	0.052792 
1220.940528  	0.053988 
1222.869344  	0.054927 
1224.798160  	0.055782 
1226.726976  	0.056315 
1228.655792  	0.056858 
1230.584608  	0.057521 
1232.513424  	0.058129 
1234.442240  	0.058509 
1236.371056  	0.058451 
1238.299872  	0.057991 
1240.228688  	0.056211 
1242.157504  	0.054343 
1244.086320  	0.053225 
1246.015136  	0.051383 
1247.943952  	0.048891 
1249.872768  	0.046205 
1251.801584  	0.043962 
1253.730400  	0.041819 
1255.659216  	0.039729 
1257.588032  	0.037470 
1259.516848  	0.035390 
1261.445664  	0.033529 
1263.374480  	0.031899 
1265.303296  	0.030490 
1267.232112  	0.029240 
1269.160928  	0.028257 
1271.089744  	0.027557 
1273.018560  	0.027183 
1274.947376  	0.026913 
1276.876192  	0.026692 
1278.805008  	0.026484 
1280.733824  	0.025933 
1282.662640  	0.024919 
1284.591456  	0.024010 
1286.520272  	0.023119 
1288.449088  	0.022344 
1290.377904  	0.021820 
1292.306720  	0.021255 
1294.235536  	0.020564 
1296.164352  	0.019709 
1298.093168  	0.018605 
1300.021984  	0.017494 
1301.950800  	0.016426 
1303.879616  	0.015309 
1305.808432  	0.014269 
1307.737248  	0.013370 
1309.666064  	0.012597 
1311.594880  	0.012122 
1313.523696  	0.011790 
1315.452512  	0.011536 
1317.381328  	0.011481 
1319.310144  	0.011395 
1321.238960  	0.011436 
1323.167776  	0.011749 
1325.096592  	0.011908 
1327.025408  	0.012036 
1328.954224  	0.012088 
1330.883040  	0.011885 
1332.811856  	0.011544 
1334.740672  	0.011114 
1336.669488  	0.010975 
1338.598304  	0.011073 
1340.527120  	0.010719 
1342.455936  	0.010200 
1344.384752  	0.010061 
1346.313568  	0.010065 
1348.242384  	0.010391 
1350.171200  	0.010867 
1352.100016  	0.011374 
1354.028832  	0.011987 
1355.957648  	0.012747 
1357.886464  	0.013396 
1359.815280  	0.013998 
1361.744096  	0.014704 
1363.672912  	0.015056 
1365.601728  	0.015014 
1367.530544  	0.015120 
1369.459360  	0.015184 
1371.388176  	0.014960 
1373.316992  	0.014840 
1375.245808  	0.014390 
1377.174624  	0.013368 
1379.103440  	0.012004 
1381.032256  	0.010561 
1382.961072  	0.009514 
1384.889888  	0.008962 
1386.818704  	0.008905 
1388.747520  	0.008547 
1390.676336  	0.007439 
1392.605152  	0.005571 
1394.533968  	0.005039 
1396.462784  	0.006759 
1398.391600  	0.007396 
1400.320416  	0.007109 
1402.249232  	0.006543 
1404.178048  	0.006711 
1406.106864  	0.006963 
1408.035680  	0.007360 
1409.964496  	0.008229 
1411.893312  	0.009452 
1413.822128  	0.010560 
1415.750944  	0.011756 
1417.679760  	0.012729 
1419.608576  	0.013355 
1421.537392  	0.013270 
1423.466208  	0.013217 
1425.395024  	0.012807 
1427.323840  	0.012186 
1429.252656  	0.011845 
1431.181472  	0.011693 
1433.110288  	0.011560 
1435.039104  	0.011748 
1436.967920  	0.012357 
1438.896736  	0.012364 
1440.825552  	0.012278 
1442.754368  	0.012354 
1444.683184  	0.012423 
1446.612000  	0.012648 
1448.540816  	0.012901 
1450.469632  	0.013028 
1452.398448  	0.013331 
1454.327264  	0.013696 
1456.256080  	0.014349 
1458.184896  	0.014957 
1460.113712  	0.014650 
1462.042528  	0.014544 
1463.971344  	0.014850 
1465.900160  	0.015478 
1467.828976  	0.015915 
1469.757792  	0.016552 
1471.686608  	0.017779 
1473.615424  	0.019690 
1475.544240  	0.020694 
1477.473056  	0.021401 
1479.401872  	0.021755 
1481.330688  	0.022232 
1483.259504  	0.022428 
1485.188320  	0.022564 
1487.117136  	0.022587 
1489.045952  	0.022480 
1490.974768  	0.021384 
1492.903584  	0.020054 
1494.832400  	0.018870 
1496.761216  	0.017690 
1498.690032  	0.016237 
1500.618848  	0.015039 
1502.547664  	0.013854 
1504.476480  	0.012656 
1506.405296  	0.012357 
1508.334112  	0.012618 
1510.262928  	0.011842 
1512.191744  	0.011189 
1514.120560  	0.010766 
1516.049376  	0.010923 
1517.978192  	0.011132 
1519.907008  	0.011222 
1521.835824  	0.012337 
1523.764640  	0.013287 
1525.693456  	0.014223 
1527.622272  	0.014840 
1529.551088  	0.014853 
1531.479904  	0.014914 
1533.408720  	0.014887 
1535.337536  	0.014120 
1537.266352  	0.012830 
1539.195168  	0.011661 
1541.123984  	0.011159 
1543.052800  	0.011005 
1544.981616  	0.010512 
1546.910432  	0.009902 
1548.839248  	0.009789 
1550.768064  	0.009933 
1552.696880  	0.009576 
1554.625696  	0.009773 
1556.554512  	0.009571 
1558.483328  	0.010228 
1560.412144  	0.011813 
1562.340960  	0.012348 
1564.269776  	0.013166 
1566.198592  	0.014507 
1568.127408  	0.015370 
1570.056224  	0.017126 
1571.985040  	0.018576 
1573.913856  	0.019316 
1575.842672  	0.020070 
1577.771488  	0.021052 
1579.700304  	0.020982 
1581.629120  	0.020780 
1583.557936  	0.020675 
1585.486752  	0.021036 
1587.415568  	0.021807 
1589.344384  	0.023210 
1591.273200  	0.024703 
1593.202016  	0.026577 
1595.130832  	0.028443 
1597.059648  	0.030251 
1598.988464  	0.031705 
1600.917280  	0.033047 
1602.846096  	0.033916 
1604.774912  	0.034482 
1606.703728  	0.034533 
1608.632544  	0.034355 
1610.561360  	0.033963 
1612.490176  	0.033687 
1614.418992  	0.033041 
1616.347808  	0.033147 
1618.276624  	0.034245 
1620.205440  	0.035168 
1622.134256  	0.036154 
1624.063072  	0.038573 
1625.991888  	0.040615 
1627.920704  	0.043204 
1629.849520  	0.046071 
1631.778336  	0.048505 
1633.707152  	0.050544 
1635.635968  	0.054099 
1637.564784  	0.057526 
1639.493600  	0.059556 
1641.422416  	0.061560 
1643.351232  	0.063105 
1645.280048  	0.064089 
1647.208864  	0.065969 
1649.137680  	0.066462 
1651.066496  	0.065852 
1652.995312  	0.066046 
1654.924128  	0.067070 
1656.852944  	0.066110 
1658.781760  	0.065465 
1660.710576  	0.064821 
1662.639392  	0.064498 
1664.568208  	0.063840 
1666.497024  	0.062999 
1668.425840  	0.062189 
1670.354656  	0.061619 
1672.283472  	0.060917 
1674.212288  	0.060403 
1676.141104  	0.060533 
1678.069920  	0.060492 
1679.998736  	0.060672 
1681.927552  	0.060634 
1683.856368  	0.061077 
1685.785184  	0.062208 
1687.714000  	0.062158 
1689.642816  	0.062222 
1691.571632  	0.061796 
1693.500448  	0.061118 
1695.429264  	0.060518 
1697.358080  	0.059847 
1699.286896  	0.058555 
1701.215712  	0.057839 
1703.144528  	0.056342 
1705.073344  	0.054643 
1707.002160  	0.052694 
1708.930976  	0.050532 
1710.859792  	0.048257 
1712.788608  	0.045737 
1714.717424  	0.042857 
1716.646240  	0.039508 
1718.575056  	0.035928 
1720.503872  	0.032590 
1722.432688  	0.029801 
1724.361504  	0.026620 
1726.290320  	0.023537 
1728.219136  	0.020838 
1730.147952  	0.018646 
1732.076768  	0.016531 
1734.005584  	0.014707 
1735.934400  	0.012506 
1737.863216  	0.010961 
1739.792032  	0.009561 
1741.720848  	0.008574 
1743.649664  	0.007717 
1745.578480  	0.006764 
1747.507296  	0.005930 
1749.436112  	0.005352 
1751.364928  	0.004712 
1753.293744  	0.004011 
1755.222560  	0.003396 
1757.151376  	0.003382 
1759.080192  	0.002966 
1761.009008  	0.002896 
1762.937824  	0.002656 
1764.866640  	0.002236 
1766.795456  	0.002046 
1768.724272  	0.002166 
1770.653088  	0.001598 
1772.581904  	0.001382 
1774.510720  	0.001373 
1776.439536  	0.001311 
1778.368352  	0.001244 
1780.297168  	0.001390 
1782.225984  	0.001158 
1784.154800  	0.001248 
1786.083616  	0.001105 
1788.012432  	0.000779 
1789.941248  	0.000618 
1791.870064  	0.000858 
1793.798880  	0.000702 
1795.727696  	0.000599 
1797.656512  	0.000270 
1799.585328  	0.000178 
1801.514144  	0.000506 
1803.442960  	0.000555 
1805.371776  	0.000186 
1807.300592  	0.000211 
1809.229408  	0.000228 
1811.158224  	0.000218 
1813.087040  	0.000175 
1815.015856  	-0.000124 
1816.944672  	-0.000249 
1818.873488  	-0.000010 
1820.802304  	0.000128 
1822.731120  	0.000175 
1824.659936  	0.000220 
1826.588752  	0.000378 
1828.517568  	0.000167 
1830.446384  	0.000150 
1832.375200  	-0.000096 
1834.304016  	-0.000164 
1836.232832  	-0.000283 
1838.161648  	-0.000147 
1840.090464  	-0.000202 
1842.019280  	-0.000246 
1843.948096  	-0.000111 
1845.876912  	0.000164 
1847.805728  	-0.000066 
1849.734544  	-0.000179 
1851.663360  	-0.000491 
1853.592176  	-0.000528 
1855.520992  	-0.000475 
1857.449808  	-0.000282 
1859.378624  	-0.000521 
1861.307440  	-0.000578 
1863.236256  	-0.000341 
1865.165072  	-0.000310 
1867.093888  	-0.000438 
1869.022704  	-0.000306 
1870.951520  	-0.000674 
1872.880336  	-0.000805 
1874.809152  	-0.000519 
1876.737968  	-0.000223 
1878.666784  	-0.000154 
1880.595600  	-0.000029 
1882.524416  	-0.000502 
1884.453232  	-0.000354 
1886.382048  	-0.000386 
1888.310864  	-0.000778 
1890.239680  	-0.000843 
1892.168496  	-0.000734 
1894.097312  	-0.000409 
1896.026128  	-0.000152 
1897.954944  	-0.000714 
1899.883760  	-0.000786 
1901.812576  	-0.000700 
1903.741392  	-0.000642 
1905.670208  	-0.000832 
1907.599024  	-0.000712 
1909.527840  	-0.000494 
1911.456656  	-0.000462 
1913.385472  	-0.000434 
1915.314288  	-0.000515 
1917.243104  	-0.000594 
1919.171920  	-0.000402 
1921.100736  	-0.000859 
1923.029552  	-0.001005 
1924.958368  	-0.000993 
1926.887184  	-0.000804 
1928.816000  	-0.000948 
1930.744816  	-0.000542 
1932.673632  	-0.000356 
1934.602448  	0.000041 
1936.531264  	-0.000139 
1938.460080  	-0.000340 
1940.388896  	-0.001015 
1942.317712  	-0.001275 
1944.246528  	-0.000974 
1946.175344  	-0.000542 
1948.104160  	-0.001004 
1950.032976  	-0.001062 
1951.961792  	-0.001417 
1953.890608  	-0.001114 
1955.819424  	-0.001430 
1957.748240  	-0.001561 
1959.677056  	-0.001601 
1961.605872  	-0.001395 
1963.534688  	-0.000946 
1965.463504  	-0.001311 
1967.392320  	-0.001325 
1969.321136  	-0.001456 
1971.249952  	-0.001819 
1973.178768  	-0.001974 
1975.107584  	-0.001276 
1977.036400  	0.000271 
1978.965216  	0.000996 
1980.894032  	0.000993 
1982.822848  	0.000640 
1984.751664  	0.000664 
1986.680480  	0.000575 
1988.609296  	0.000654 
1990.538112  	0.000064 
1992.466928  	0.000112 
1994.395744  	-0.000314 
1996.324560  	-0.000832 
1998.253376  	-0.000575 
2000.182192  	-0.000398 
2002.111008  	-0.001250 
2004.039824  	-0.000591 
2005.968640  	0.000848 
2007.897456  	0.001237 
2009.826272  	0.000834 
2011.755088  	0.001124 
2013.683904  	-0.000927 
2015.612720  	-0.001634 
2017.541536  	-0.000487 
2019.470352  	0.000295 
2021.399168  	0.000834 
2023.327984  	0.000895 
2025.256800  	-0.001109 
2027.185616  	-0.002162 
2029.114432  	-0.000598 
2031.043248  	0.000413 
2032.972064  	0.000309 
2034.900880  	0.001059 
2036.829696  	0.000413 
2038.758512  	-0.000034 
2040.687328  	0.000072 
2042.616144  	-0.000157 
2044.544960  	0.000404 
2046.473776  	0.001426 
2048.402592  	0.001452 
2050.331408  	0.000721 
2052.260224  	0.000090 
2054.189040  	0.000636 
2056.117856  	0.000477 
2058.046672  	-0.000487 
2059.975488  	-0.000206 
2061.904304  	0.000336 
2063.833120  	0.000287 
2065.761936  	0.000324 
2067.690752  	-0.000478 
2069.619568  	-0.000307 
2071.548384  	0.000126 
2073.477200  	0.000404 
2075.406016  	0.000152 
2077.334832  	-0.000773 
2079.263648  	-0.000959 
2081.192464  	-0.000631 
2083.121280  	-0.000546 
2085.050096  	-0.000374 
2086.978912  	-0.000308 
2088.907728  	-0.000159 
2090.836544  	-0.000559 
2092.765360  	-0.000811 
2094.694176  	-0.000423 
2096.622992  	0.000240 
2098.551808  	0.000167 
2100.480624  	0.000053 
2102.409440  	0.000042 
2104.338256  	0.000399 
2106.267072  	0.000434 
2108.195888  	0.000301 
2110.124704  	0.000208 
2112.053520  	-0.000004 
2113.982336  	-0.000426 
2115.911152  	-0.000268 
2117.839968  	-0.000219 
2119.768784  	-0.000647 
2121.697600  	-0.001376 
2123.626416  	-0.000873 
2125.555232  	-0.001046 
2127.484048  	-0.001252 
2129.412864  	-0.001510 
2131.341680  	-0.002393 
2133.270496  	-0.002743 
2135.199312  	-0.002017 
2137.128128  	-0.001323 
2139.056944  	-0.001216 
2140.985760  	-0.001243 
2142.914576  	-0.000559 
2144.843392  	-0.001707 
2146.772208  	-0.002475 
2148.701024  	-0.001800 
2150.629840  	-0.002276 
2152.558656  	-0.003767 
2154.487472  	-0.003803 
2156.416288  	-0.003096 
2158.345104  	-0.001613 
2160.273920  	0.001211 
2162.202736  	0.001645 
2164.131552  	0.001356 
2166.060368  	0.001429 
2167.989184  	0.000623 
2169.918000  	-0.000621 
2171.846816  	-0.001094 
2173.775632  	-0.000733 
2175.704448  	0.000196 
2177.633264  	0.001200 
2179.562080  	0.001249 
2181.490896  	0.001967 
2183.419712  	0.002342 
2185.348528  	0.001861 
2187.277344  	0.001133 
2189.206160  	0.000829 
2191.134976  	0.000588 
2193.063792  	0.000297 
2194.992608  	0.000430 
2196.921424  	0.000071 
2198.850240  	-0.000516 
2200.779056  	0.000712 
2202.707872  	0.001627 
2204.636688  	0.000990 
2206.565504  	0.000004 
2208.494320  	0.000205 
2210.423136  	0.000831 
2212.351952  	0.001478 
2214.280768  	0.001210 
2216.209584  	0.000793 
2218.138400  	0.000483 
2220.067216  	0.000860 
2221.996032  	0.000402 
2223.924848  	0.000213 
2225.853664  	0.000623 
2227.782480  	0.000504 
2229.711296  	0.000328 
2231.640112  	0.000302 
2233.568928  	-0.000424 
2235.497744  	-0.000688 
2237.426560  	-0.000318 
2239.355376  	-0.000324 
2241.284192  	-0.000488 
2243.213008  	0.000312 
2245.141824  	0.000668 
2247.070640  	0.000187 
2248.999456  	-0.000188 
2250.928272  	-0.000433 
2252.857088  	-0.000220 
2254.785904  	0.000459 
2256.714720  	0.000375 
2258.643536  	-0.000019 
2260.572352  	0.000037 
2262.501168  	0.000127 
2264.429984  	0.000463 
2266.358800  	0.000369 
2268.287616  	-0.000032 
2270.216432  	-0.000083 
2272.145248  	-0.000071 
2274.074064  	0.000098 
2276.002880  	0.000745 
2277.931696  	0.001157 
2279.860512  	0.001013 
2281.789328  	0.001144 
2283.718144  	0.001229 
2285.646960  	0.001130 
2287.575776  	0.001012 
2289.504592  	0.000840 
2291.433408  	0.000648 
2293.362224  	0.000441 
2295.291040  	0.000370 
2297.219856  	0.000296 
2299.148672  	-0.000077 
2301.077488  	-0.000245 
2303.006304  	-0.000314 
2304.935120  	-0.000460 
2306.863936  	-0.000578 
2308.792752  	-0.000701 
2310.721568  	-0.001020 
2312.650384  	-0.001387 
2314.579200  	-0.001830 
2316.508016  	-0.002236 
2318.436832  	-0.002948 
2320.365648  	-0.003282 
2322.294464  	-0.003487 
2324.223280  	-0.004442 
2326.152096  	-0.005896 
2328.080912  	-0.006774 
2330.009728  	-0.007190 
2331.938544  	-0.007307 
2333.867360  	-0.007643 
2335.796176  	-0.008316 
2337.724992  	-0.009200 
2339.653808  	-0.009507 
2341.582624  	-0.009607 
2343.511440  	-0.009001 
2345.440256  	-0.007239 
2347.369072  	-0.005423 
2349.297888  	-0.005159 
2351.226704  	-0.006660 
2353.155520  	-0.008669 
2355.084336  	-0.010121 
2357.013152  	-0.011818 
2358.941968  	-0.012878 
2360.870784  	-0.012577 
2362.799600  	-0.011916 
2364.728416  	-0.011621 
2366.657232  	-0.010841 
2368.586048  	-0.009252 
2370.514864  	-0.007478 
2372.443680  	-0.005864 
2374.372496  	-0.004215 
2376.301312  	-0.003006 
2378.230128  	-0.001582 
2380.158944  	-0.000869 
2382.087760  	-0.000444 
2384.016576  	-0.000044 
2385.945392  	0.000146 
2387.874208  	0.000210 
2389.803024  	0.000240 
2391.731840  	0.000267 
2393.660656  	0.000434 
2395.589472  	0.000588 
2397.518288  	0.000715 
2399.447104  	0.000608 
2401.375920  	0.000408 
2403.304736  	0.000207 
2405.233552  	0.000398 
2407.162368  	0.000435 
2409.091184  	0.000435 
2411.020000  	0.000576 
2412.948816  	0.000622 
2414.877632  	0.000475 
2416.806448  	0.000578 
2418.735264  	0.000763 
2420.664080  	0.000638 
2422.592896  	0.000686 
2424.521712  	0.000720 
2426.450528  	0.000674 
2428.379344  	0.000804 
2430.308160  	0.000794 
2432.236976  	0.000669 
2434.165792  	0.000590 
2436.094608  	0.000681 
2438.023424  	0.000836 
2439.952240  	0.000890 
2441.881056  	0.000768 
2443.809872  	0.000919 
2445.738688  	0.001133 
2447.667504  	0.001107 
2449.596320  	0.001165 
2451.525136  	0.001198 
2453.453952  	0.001088 
2455.382768  	0.001196 
2457.311584  	0.001322 
2459.240400  	0.001240 
2461.169216  	0.001261 
2463.098032  	0.001449 
2465.026848  	0.001411 
2466.955664  	0.001290 
2468.884480  	0.001186 
2470.813296  	0.001350 
2472.742112  	0.001331 
2474.670928  	0.001334 
2476.599744  	0.001262 
2478.528560  	0.001278 
2480.457376  	0.001249 
2482.386192  	0.001206 
2484.315008  	0.001333 
2486.243824  	0.001322 
2488.172640  	0.001522 
2490.101456  	0.001802 
2492.030272  	0.001799 
2493.959088  	0.001594 
2495.887904  	0.001624 
2497.816720  	0.001735 
2499.745536  	0.001646 
2501.674352  	0.001578 
2503.603168  	0.001543 
2505.531984  	0.001560 
2507.460800  	0.001699 
2509.389616  	0.001936 
2511.318432  	0.001925 
2513.247248  	0.001688 
2515.176064  	0.001728 
2517.104880  	0.001856 
2519.033696  	0.002133 
2520.962512  	0.002116 
2522.891328  	0.001916 
2524.820144  	0.001882 
2526.748960  	0.001873 
2528.677776  	0.001940 
2530.606592  	0.002048 
2532.535408  	0.002163 
2534.464224  	0.002167 
2536.393040  	0.002154 
2538.321856  	0.002251 
2540.250672  	0.002443 
2542.179488  	0.002545 
2544.108304  	0.002508 
2546.037120  	0.002370 
2547.965936  	0.002287 
2549.894752  	0.002356 
2551.823568  	0.002569 
2553.752384  	0.002422 
2555.681200  	0.002237 
2557.610016  	0.002244 
2559.538832  	0.002660 
2561.467648  	0.002901 
2563.396464  	0.002853 
2565.325280  	0.002870 
2567.254096  	0.002959 
2569.182912  	0.002769 
2571.111728  	0.002680 
2573.040544  	0.002730 
2574.969360  	0.002656 
2576.898176  	0.002713 
2578.826992  	0.002864 
2580.755808  	0.002843 
2582.684624  	0.002816 
2584.613440  	0.003162 
2586.542256  	0.003259 
2588.471072  	0.003076 
2590.399888  	0.003278 
2592.328704  	0.003096 
2594.257520  	0.002905 
2596.186336  	0.003001 
2598.115152  	0.003180 
2600.043968  	0.003334 
2601.972784  	0.003396 
2603.901600  	0.003430 
2605.830416  	0.003532 
2607.759232  	0.003579 
2609.688048  	0.003554 
2611.616864  	0.003438 
2613.545680  	0.003446 
2615.474496  	0.003729 
2617.403312  	0.003822 
2619.332128  	0.003636 
2621.260944  	0.003543 
2623.189760  	0.003618 
2625.118576  	0.003713 
2627.047392  	0.003854 
2628.976208  	0.004045 
2630.905024  	0.004115 
2632.833840  	0.004202 
2634.762656  	0.004147 
2636.691472  	0.004089 
2638.620288  	0.004177 
2640.549104  	0.004257 
2642.477920  	0.004363 
2644.406736  	0.004385 
2646.335552  	0.004344 
2648.264368  	0.004463 
2650.193184  	0.004690 
2652.122000  	0.004751 
2654.050816  	0.004767 
2655.979632  	0.004663 
2657.908448  	0.004496 
2659.837264  	0.004532 
2661.766080  	0.004463 
2663.694896  	0.004416 
2665.623712  	0.004345 
2667.552528  	0.004302 
2669.481344  	0.004321 
2671.410160  	0.004486 
2673.338976  	0.004613 
2675.267792  	0.004486 
2677.196608  	0.004499 
2679.125424  	0.004598 
2681.054240  	0.004573 
2682.983056  	0.004748 
2684.911872  	0.004818 
2686.840688  	0.004717 
2688.769504  	0.004747 
2690.698320  	0.004829 
2692.627136  	0.004941 
2694.555952  	0.005015 
2696.484768  	0.005069 
2698.413584  	0.005070 
2700.342400  	0.005049 
2702.271216  	0.005120 
2704.200032  	0.005093 
2706.128848  	0.005100 
2708.057664  	0.005251 
2709.986480  	0.005455 
2711.915296  	0.005464 
2713.844112  	0.005422 
2715.772928  	0.005438 
2717.701744  	0.005556 
2719.630560  	0.005603 
2721.559376  	0.005594 
2723.488192  	0.005677 
2725.417008  	0.005718 
2727.345824  	0.005698 
2729.274640  	0.005833 
2731.203456  	0.005813 
2733.132272  	0.005858 
2735.061088  	0.005974 
2736.989904  	0.006017 
2738.918720  	0.005981 
2740.847536  	0.005868 
2742.776352  	0.005886 
2744.705168  	0.006043 
2746.633984  	0.006059 
2748.562800  	0.005996 
2750.491616  	0.006047 
2752.420432  	0.006053 
2754.349248  	0.006008 
2756.278064  	0.006174 
2758.206880  	0.006293 
2760.135696  	0.006204 
2762.064512  	0.006211 
2763.993328  	0.006345 
2765.922144  	0.006367 
2767.850960  	0.006389 
2769.779776  	0.006449 
2771.708592  	0.006464 
2773.637408  	0.006391 
2775.566224  	0.006309 
2777.495040  	0.006463 
2779.423856  	0.006640 
2781.352672  	0.006565 
2783.281488  	0.006573 
2785.210304  	0.006667 
2787.139120  	0.006631 
2789.067936  	0.006548 
2790.996752  	0.006656 
2792.925568  	0.006719 
2794.854384  	0.006741 
2796.783200  	0.006857 
2798.712016  	0.006905 
2800.640832  	0.006938 
2802.569648  	0.006950 
2804.498464  	0.006905 
2806.427280  	0.006922 
2808.356096  	0.006981 
2810.284912  	0.006942 
2812.213728  	0.007055 
2814.142544  	0.007226 
2816.071360  	0.007189 
2818.000176  	0.007104 
2819.928992  	0.007031 
2821.857808  	0.007020 
2823.786624  	0.007147 
2825.715440  	0.007336 
2827.644256  	0.007342 
2829.573072  	0.007403 
2831.501888  	0.007587 
2833.430704  	0.007708 
2835.359520  	0.007801 
2837.288336  	0.007874 
2839.217152  	0.007710 
2841.145968  	0.007454 
2843.074784  	0.007377 
2845.003600  	0.007672 
2846.932416  	0.008158 
2848.861232  	0.008547 
2850.790048  	0.008233 
2852.718864  	0.007490 
2854.647680  	0.006723 
2856.576496  	0.006054 
2858.505312  	0.005537 
2860.434128  	0.005090 
2862.362944  	0.004661 
2864.291760  	0.004325 
2866.220576  	0.004041 
2868.149392  	0.003833 
2870.078208  	0.003804 
2872.007024  	0.003925 
2873.935840  	0.003916 
2875.864656  	0.003712 
2877.793472  	0.003576 
2879.722288  	0.003491 
2881.651104  	0.003189 
2883.579920  	0.002676 
2885.508736  	0.002515 
2887.437552  	0.002693 
2889.366368  	0.002812 
2891.295184  	0.002884 
2893.224000  	0.002862 
2895.152816  	0.002884 
2897.081632  	0.002768 
2899.010448  	0.002014 
2900.939264  	0.001506 
2902.868080  	0.002342 
2904.796896  	0.003257 
2906.725712  	0.003911 
2908.654528  	0.004436 
2910.583344  	0.004814 
2912.512160  	0.005689 
2914.440976  	0.007163 
2916.369792  	0.008245 
2918.298608  	0.008513 
2920.227424  	0.008418 
2922.156240  	0.008186 
2924.085056  	0.008103 
2926.013872  	0.008037 
2927.942688  	0.007909 
2929.871504  	0.007888 
2931.800320  	0.007977 
2933.729136  	0.007893 
2935.657952  	0.007612 
2937.586768  	0.007468 
2939.515584  	0.007342 
2941.444400  	0.007226 
2943.373216  	0.007333 
2945.302032  	0.007487 
2947.230848  	0.007596 
2949.159664  	0.007583 
2951.088480  	0.007326 
2953.017296  	0.007159 
2954.946112  	0.006893 
2956.874928  	0.006472 
2958.803744  	0.005877 
2960.732560  	0.005366 
2962.661376  	0.004786 
2964.590192  	0.004078 
2966.519008  	0.003183 
2968.447824  	0.002340 
2970.376640  	0.001754 
2972.305456  	0.001327 
2974.234272  	0.001203 
2976.163088  	0.001153 
2978.091904  	0.000928 
2980.020720  	0.000755 
2981.949536  	0.000775 
2983.878352  	0.000520 
2985.807168  	-0.000174 
2987.735984  	-0.000758 
2989.664800  	-0.000397 
2991.593616  	0.001283 
2993.522432  	0.002203 
2995.451248  	0.002348 
2997.380064  	0.002666 
2999.308880  	0.003295 
3001.237696  	0.004032 
3003.166512  	0.004699 
3005.095328  	0.005543 
3007.024144  	0.006149 
3008.952960  	0.006680 
3010.881776  	0.007451 
3012.810592  	0.008240 
3014.739408  	0.009050 
3016.668224  	0.009612 
3018.597040  	0.010067 
3020.525856  	0.010504 
3022.454672  	0.011077 
3024.383488  	0.011641 
3026.312304  	0.011977 
3028.241120  	0.012356 
3030.169936  	0.012803 
3032.098752  	0.013244 
3034.027568  	0.013653 
3035.956384  	0.014094 
3037.885200  	0.014474 
3039.814016  	0.014741 
3041.742832  	0.014857 
3043.671648  	0.014947 
3045.600464  	0.015255 
3047.529280  	0.015647 
3049.458096  	0.015752 
3051.386912  	0.015520 
3053.315728  	0.015557 
3055.244544  	0.015889 
3057.173360  	0.016242 
3059.102176  	0.016400 
3061.030992  	0.016475 
3062.959808  	0.016692 
3064.888624  	0.017002 
3066.817440  	0.017187 
3068.746256  	0.017286 
3070.675072  	0.017579 
3072.603888  	0.017867 
3074.532704  	0.018021 
3076.461520  	0.018232 
3078.390336  	0.018308 
3080.319152  	0.018456 
3082.247968  	0.018733 
3084.176784  	0.018807 
3086.105600  	0.018995 
3088.034416  	0.019372 
3089.963232  	0.019450 
3091.892048  	0.019542 
3093.820864  	0.019677 
3095.749680  	0.019813 
3097.678496  	0.020000 
3099.607312  	0.020283 
3101.536128  	0.020670 
3103.464944  	0.021018 
3105.393760  	0.021184 
3107.322576  	0.021276 
3109.251392  	0.021503 
3111.180208  	0.021612 
3113.109024  	0.021766 
3115.037840  	0.021995 
3116.966656  	0.022170 
3118.895472  	0.022299 
3120.824288  	0.022509 
3122.753104  	0.022826 
3124.681920  	0.022858 
3126.610736  	0.022815 
3128.539552  	0.023049 
3130.468368  	0.023442 
3132.397184  	0.023620 
3134.326000  	0.023681 
3136.254816  	0.023729 
3138.183632  	0.023766 
3140.112448  	0.023994 
3142.041264  	0.024267 
3143.970080  	0.024431 
3145.898896  	0.024532 
3147.827712  	0.024684 
3149.756528  	0.024763 
3151.685344  	0.024952 
3153.614160  	0.025214 
3155.542976  	0.025405 
3157.471792  	0.025583 
3159.400608  	0.025795 
3161.329424  	0.025878 
3163.258240  	0.025879 
3165.187056  	0.026208 
3167.115872  	0.026401 
3169.044688  	0.026560 
3170.973504  	0.026634 
3172.902320  	0.026655 
3174.831136  	0.026891 
3176.759952  	0.026998 
3178.688768  	0.027060 
3180.617584  	0.027477 
3182.546400  	0.027617 
3184.475216  	0.027677 
3186.404032  	0.027868 
3188.332848  	0.027820 
3190.261664  	0.027657 
3192.190480  	0.027633 
3194.119296  	0.027882 
3196.048112  	0.027940 
3197.976928  	0.027849 
3199.905744  	0.027812 
3201.834560  	0.027848 
3203.763376  	0.027974 
3205.692192  	0.027982 
3207.621008  	0.027752 
3209.549824  	0.027547 
3211.478640  	0.027565 
3213.407456  	0.027651 
3215.336272  	0.027715 
3217.265088  	0.027690 
3219.193904  	0.027485 
3221.122720  	0.027499 
3223.051536  	0.027400 
3224.980352  	0.027147 
3226.909168  	0.027066 
3228.837984  	0.027171 
3230.766800  	0.027086 
3232.695616  	0.026845 
3234.624432  	0.026708 
3236.553248  	0.026808 
3238.482064  	0.026974 
3240.410880  	0.026879 
3242.339696  	0.026702 
3244.268512  	0.026737 
3246.197328  	0.026905 
3248.126144  	0.026848 
3250.054960  	0.026815 
3251.983776  	0.026823 
3253.912592  	0.026915 
3255.841408  	0.026986 
3257.770224  	0.027011 
3259.699040  	0.027204 
3261.627856  	0.027200 
3263.556672  	0.027126 
3265.485488  	0.027367 
3267.414304  	0.027517 
3269.343120  	0.027455 
3271.271936  	0.027290 
3273.200752  	0.027428 
3275.129568  	0.027708 
3277.058384  	0.027783 
3278.987200  	0.027825 
3280.916016  	0.027793 
3282.844832  	0.027666 
3284.773648  	0.027895 
3286.702464  	0.028183 
3288.631280  	0.028170 
3290.560096  	0.028079 
3292.488912  	0.028331 
3294.417728  	0.028602 
3296.346544  	0.028677 
3298.275360  	0.028685 
3300.204176  	0.028772 
3302.132992  	0.029087 
3304.061808  	0.029582 
3305.990624  	0.029768 
3307.919440  	0.029787 
3309.848256  	0.029958 
3311.777072  	0.030086 
3313.705888  	0.030297 
3315.634704  	0.030380 
3317.563520  	0.030289 
3319.492336  	0.030628 
3321.421152  	0.030961 
3323.349968  	0.030856 
3325.278784  	0.030690 
3327.207600  	0.031000 
3329.136416  	0.031140 
3331.065232  	0.031098 
3332.994048  	0.031207 
3334.922864  	0.031347 
3336.851680  	0.031356 
3338.780496  	0.031260 
3340.709312  	0.031217 
3342.638128  	0.031376 
3344.566944  	0.031392 
3346.495760  	0.031497 
3348.424576  	0.031312 
3350.353392  	0.031206 
3352.282208  	0.031185 
3354.211024  	0.031061 
3356.139840  	0.030984 
3358.068656  	0.030927 
3359.997472  	0.030920 
3361.926288  	0.030788 
3363.855104  	0.030527 
3365.783920  	0.030468 
3367.712736  	0.030363 
3369.641552  	0.030241 
3371.570368  	0.029998 
3373.499184  	0.029794 
3375.428000  	0.029694 
3377.356816  	0.029653 
3379.285632  	0.029538 
3381.214448  	0.029287 
3383.143264  	0.028916 
3385.072080  	0.028764 
3387.000896  	0.028846 
3388.929712  	0.028666 
3390.858528  	0.028059 
3392.787344  	0.027964 
3394.716160  	0.028106 
3396.644976  	0.028242 
3398.573792  	0.028060 
3400.502608  	0.027955 
3402.431424  	0.027919 
3404.360240  	0.027731 
3406.289056  	0.027393 
3408.217872  	0.027206 
3410.146688  	0.027037 
3412.075504  	0.027057 
3414.004320  	0.026987 
3415.933136  	0.026625 
3417.861952  	0.026317 
3419.790768  	0.026319 
3421.719584  	0.026417 
3423.648400  	0.026216 
3425.577216  	0.025889 
3427.506032  	0.025676 
3429.434848  	0.025404 
3431.363664  	0.025136 
3433.292480  	0.025139 
3435.221296  	0.024981 
3437.150112  	0.024893 
3439.078928  	0.024818 
3441.007744  	0.024555 
3442.936560  	0.024417 
3444.865376  	0.024130 
3446.794192  	0.024008 
3448.723008  	0.023932 
3450.651824  	0.023681 
3452.580640  	0.023357 
3454.509456  	0.023206 
3456.438272  	0.023095 
3458.367088  	0.022813 
3460.295904  	0.022431 
3462.224720  	0.022222 
3464.153536  	0.022007 
3466.082352  	0.021660 
3468.011168  	0.021290 
3469.939984  	0.021081 
3471.868800  	0.020899 
3473.797616  	0.020670 
3475.726432  	0.020378 
3477.655248  	0.020030 
3479.584064  	0.019956 
3481.512880  	0.019808 
3483.441696  	0.019253 
3485.370512  	0.018953 
3487.299328  	0.018748 
3489.228144  	0.018506 
3491.156960  	0.018270 
3493.085776  	0.018097 
3495.014592  	0.017703 
3496.943408  	0.017378 
3498.872224  	0.017246 
3500.801040  	0.017287 
3502.729856  	0.017210 
3504.658672  	0.016731 
3506.587488  	0.016320 
3508.516304  	0.015997 
3510.445120  	0.015741 
3512.373936  	0.015631 
3514.302752  	0.015233 
3516.231568  	0.014953 
3518.160384  	0.014948 
3520.089200  	0.014850 
3522.018016  	0.014781 
3523.946832  	0.014518 
3525.875648  	0.013870 
3527.804464  	0.013656 
3529.733280  	0.013550 
3531.662096  	0.013450 
3533.590912  	0.013424 
3535.519728  	0.013401 
3537.448544  	0.013129 
3539.377360  	0.012755 
3541.306176  	0.012393 
3543.234992  	0.012418 
3545.163808  	0.012485 
3547.092624  	0.012204 
3549.021440  	0.011815 
3550.950256  	0.011500 
3552.879072  	0.011354 
3554.807888  	0.011345 
3556.736704  	0.011198 
3558.665520  	0.011024 
3560.594336  	0.010800 
3562.523152  	0.010427 
3564.451968  	0.010107 
3566.380784  	0.010479 
3568.309600  	0.010585 
3570.238416  	0.009943 
3572.167232  	0.009289 
3574.096048  	0.008994 
3576.024864  	0.008843 
3577.953680  	0.008468 
3579.882496  	0.008185 
3581.811312  	0.008052 
3583.740128  	0.008052 
3585.668944  	0.008162 
3587.597760  	0.008611 
3589.526576  	0.008166 
3591.455392  	0.007042 
3593.384208  	0.006708 
3595.313024  	0.006641 
3597.241840  	0.006343 
3599.170656  	0.005884 
3601.099472  	0.005764 
3603.028288  	0.005584 
3604.957104  	0.005233 
3606.885920  	0.004999 
3608.814736  	0.004863 
3610.743552  	0.004645 
3612.672368  	0.004491 
3614.601184  	0.004080 
3616.530000  	0.003569 
3618.458816  	0.003131 
3620.387632  	0.002797 
3622.316448  	0.002283 
3624.245264  	0.002098 
3626.174080  	0.001633 
3628.102896  	0.001538 
3630.031712  	0.001894 
3631.960528  	0.000984 
3633.889344  	0.000761 
3635.818160  	0.000441 
3637.746976  	0.000072 
3639.675792  	-0.000266 
3641.604608  	-0.000546 
3643.533424  	-0.001057 
3645.462240  	-0.001641 
3647.391056  	-0.001809 
3649.319872  	-0.002065 
3651.248688  	-0.002157 
3653.177504  	-0.002968 
3655.106320  	-0.003442 
3657.035136  	-0.003572 
3658.963952  	-0.003848 
3660.892768  	-0.004255 
3662.821584  	-0.004470 
3664.750400  	-0.004394 
3666.679216  	-0.004993 
3668.608032  	-0.005374 
3670.536848  	-0.004733 
3672.465664  	-0.005102 
3674.394480  	-0.005479 
3676.323296  	-0.004834 
3678.252112  	-0.004799 
3680.180928  	-0.004599 
3682.109744  	-0.004963 
3684.038560  	-0.005308 
3685.967376  	-0.005503 
3687.896192  	-0.005329 
3689.825008  	-0.005080 
3691.753824  	-0.005010 
3693.682640  	-0.005055 
3695.611456  	-0.004804 
3697.540272  	-0.004484 
3699.469088  	-0.004489 
3701.397904  	-0.004076 
3703.326720  	-0.003762 
3705.255536  	-0.003904 
3707.184352  	-0.003919 
3709.113168  	-0.004006 
3711.041984  	-0.003445 
3712.970800  	-0.002696 
3714.899616  	-0.002770 
3716.828432  	-0.002757 
3718.757248  	-0.002749 
3720.686064  	-0.002962 
3722.614880  	-0.002887 
3724.543696  	-0.002954 
3726.472512  	-0.002783 
3728.401328  	-0.003170 
3730.330144  	-0.003812 
3732.258960  	-0.003758 
3734.187776  	-0.003396 
3736.116592  	-0.002593 
3738.045408  	-0.002829 
3739.974224  	-0.003132 
3741.903040  	-0.003677 
3743.831856  	-0.002653 
3745.760672  	-0.001497 
3747.689488  	-0.002775 
3749.618304  	-0.002870 
3751.547120  	-0.002275 
3753.475936  	-0.001980 
3755.404752  	-0.002519 
3757.333568  	-0.002596 
3759.262384  	-0.002536 
3761.191200  	-0.002451 
3763.120016  	-0.002618 
3765.048832  	-0.002539 
3766.977648  	-0.002651 
3768.906464  	-0.002500 
3770.835280  	-0.001987 
3772.764096  	-0.002344 
3774.692912  	-0.002664 
3776.621728  	-0.002777 
3778.550544  	-0.002526 
3780.479360  	-0.002414 
3782.408176  	-0.002895 
3784.336992  	-0.002803 
3786.265808  	-0.002709 
3788.194624  	-0.002691 
3790.123440  	-0.002577 
3792.052256  	-0.002500 
3793.981072  	-0.002576 
3795.909888  	-0.002527 
3797.838704  	-0.002748 
3799.767520  	-0.003280 
3801.696336  	-0.002741 
3803.625152  	-0.002667 
3805.553968  	-0.002943 
3807.482784  	-0.002499 
3809.411600  	-0.002612 
3811.340416  	-0.002613 
3813.269232  	-0.002880 
3815.198048  	-0.002929 
3817.126864  	-0.002705 
3819.055680  	-0.003362 
3820.984496  	-0.002845 
3822.913312  	-0.002473 
3824.842128  	-0.002868 
3826.770944  	-0.002663 
3828.699760  	-0.002991 
3830.628576  	-0.003318 
3832.557392  	-0.003127 
3834.486208  	-0.003054 
3836.415024  	-0.003099 
3838.343840  	-0.002647 
3840.272656  	-0.002344 
3842.201472  	-0.002310 
3844.130288  	-0.002218 
3846.059104  	-0.002535 
3847.987920  	-0.002867 
3849.916736  	-0.003047 
3851.845552  	-0.003109 
3853.774368  	-0.002260 
3855.703184  	-0.002330 
3857.632000  	-0.002570 
3859.560816  	-0.002770 
3861.489632  	-0.002919 
3863.418448  	-0.002807 
3865.347264  	-0.002518 
3867.276080  	-0.003020 
3869.204896  	-0.002628 
3871.133712  	-0.001968 
3873.062528  	-0.002264 
3874.991344  	-0.002120 
3876.920160  	-0.002724 
3878.848976  	-0.002704 
3880.777792  	-0.002081 
3882.706608  	-0.002445 
3884.635424  	-0.002507 
3886.564240  	-0.002069 
3888.493056  	-0.002648 
3890.421872  	-0.002530 
3892.350688  	-0.002221 
3894.279504  	-0.002530 
3896.208320  	-0.002925 
3898.137136  	-0.002798 
3900.065952  	-0.002249 
3901.994768  	-0.002035 
3903.923584  	-0.001967 
3905.852400  	-0.002040 
3907.781216  	-0.002411 
3909.710032  	-0.002608 
3911.638848  	-0.002449 
3913.567664  	-0.002503 
3915.496480  	-0.002381 
3917.425296  	-0.002162 
3919.354112  	-0.002192 
3921.282928  	-0.002272 
3923.211744  	-0.002443 
3925.140560  	-0.002378 
3927.069376  	-0.002505 
3928.998192  	-0.002561 
3930.927008  	-0.002355 
3932.855824  	-0.002154 
3934.784640  	-0.002327 
3936.713456  	-0.002389 
3938.642272  	-0.002393 
3940.571088  	-0.002390 
3942.499904  	-0.002306 
3944.428720  	-0.002415 
3946.357536  	-0.002507 
3948.286352  	-0.002271 
3950.215168  	-0.002289 
3952.143984  	-0.002361 
3954.072800  	-0.002451 
3956.001616  	-0.002407 
3957.930432  	-0.002409 
3959.859248  	-0.002187 
3961.788064  	-0.002126 
3963.716880  	-0.002413 
3965.645696  	-0.002733 
3967.574512  	-0.002636 
3969.503328  	-0.002530 
3971.432144  	-0.002416 
3973.360960  	-0.002467 
3975.289776  	-0.002457 
3977.218592  	-0.002352 
3979.147408  	-0.002393 
3981.076224  	-0.002306 
3983.005040  	-0.002148 
3984.933856  	-0.002335 
3986.862672  	-0.002541 
3988.791488  	-0.002520 
3990.720304  	-0.002323 
3992.649120  	-0.002343 
3994.577936  	-0.002414 
3996.506752  	-0.002349 
3998.435568  	-0.002344 
4000.364384  	-0.002335 