##TITLE=No Description
##DATA TYPE=INFRARED SPECTRUM
##XUNITS=1/CM
##YUNITS=Abs
399.264912  	0.236910 
401.193728  	0.225309 
403.122544  	0.219146 
405.051360  	0.216883 
406.980176  	0.216266 
408.908992  	0.215754 
410.837808  	0.219066 
412.766624  	0.220687 
414.695440  	0.221443 
416.624256  	0.218936 
418.553072  	0.221404 
420.481888  	0.215169 
422.410704  	0.212803 
424.339520  	0.207338 
426.268336  	0.205129 
428.197152  	0.204378 
430.125968  	0.206421 
432.054784  	0.205834 
433.983600  	0.205875 
435.912416  	0.203746 
437.841232  	0.203359 
439.770048  	0.202118 
441.698864  	0.200235 
443.627680  	0.197875 
445.556496  	0.195494 
447.485312  	0.194717 
449.414128  	0.198497 
451.342944  	0.199717 
453.271760  	0.202293 
455.200576  	0.204363 
457.129392  	0.206265 
459.058208  	0.202398 
460.987024  	0.199952 
462.915840  	0.200409 
464.844656  	0.201916 
466.773472  	0.200753 
468.702288  	0.201062 
470.631104  	0.203639 
472.559920  	0.204696 
474.488736  	0.201336 
476.417552  	0.200947 
478.346368  	0.202162 
480.275184  	0.203904 
482.204000  	0.204173 
484.132816  	0.205938 
486.061632  	0.203940 
487.990448  	0.205411 
489.919264  	0.205834 
491.848080  	0.206059 
493.776896  	0.206455 
495.705712  	0.209516 
497.634528  	0.210917 
499.563344  	0.210294 
501.492160  	0.208587 
503.420976  	0.208174 
505.349792  	0.208660 
507.278608  	0.209450 
509.207424  	0.209040 
511.136240  	0.212775 
513.065056  	0.213642 
514.993872  	0.214101 
516.922688  	0.216229 
518.851504  	0.217588 
520.780320  	0.216637 
522.709136  	0.216455 
524.637952  	0.217753 
526.566768  	0.219880 
528.495584  	0.218822 
530.424400  	0.218750 
532.353216  	0.218842 
534.282032  	0.218846 
536.210848  	0.217134 
538.139664  	0.217896 
540.068480  	0.217488 
541.997296  	0.216248 
543.926112  	0.215872 
545.854928  	0.215537 
547.783744  	0.214215 
549.712560  	0.213163 
551.641376  	0.213132 
553.570192  	0.213436 
555.499008  	0.213131 
557.427824  	0.213110 
559.356640  	0.211963 
561.285456  	0.210679 
563.214272  	0.209822 
565.143088  	0.209373 
567.071904  	0.208772 
569.000720  	0.208294 
570.929536  	0.207258 
572.858352  	0.206628 
574.787168  	0.206077 
576.715984  	0.205465 
578.644800  	0.204485 
580.573616  	0.203867 
582.502432  	0.202237 
584.431248  	0.202072 
586.360064  	0.200888 
588.288880  	0.199672 
590.217696  	0.199449 
592.146512  	0.199477 
594.075328  	0.198345 
596.004144  	0.197487 
597.932960  	0.196554 
599.861776  	0.196526 
601.790592  	0.195982 
603.719408  	0.195049 
605.648224  	0.194821 
607.577040  	0.195016 
609.505856  	0.194905 
611.434672  	0.194426 
613.363488  	0.193456 
615.292304  	0.193242 
617.221120  	0.192832 
619.149936  	0.192682 
621.078752  	0.192237 
623.007568  	0.192001 
624.936384  	0.192015 
626.865200  	0.191320 
628.794016  	0.190311 
630.722832  	0.190449 
632.651648  	0.190468 
634.580464  	0.190484 
636.509280  	0.190051 
638.438096  	0.190000 
640.366912  	0.190047 
642.295728  	0.190128 
644.224544  	0.189422 
646.153360  	0.188553 
648.082176  	0.187238 
650.010992  	0.185980 
651.939808  	0.184810 
653.868624  	0.184065 
655.797440  	0.182748 
657.726256  	0.181164 
659.655072  	0.179545 
661.583888  	0.178456 
663.512704  	0.177351 
665.441520  	0.176069 
667.370336  	0.172560 
669.299152  	0.170046 
671.227968  	0.170803 
673.156784  	0.170187 
675.085600  	0.168652 
677.014416  	0.168069 
678.943232  	0.167358 
680.872048  	0.166593 
682.800864  	0.165621 
684.729680  	0.164579 
686.658496  	0.163943 
688.587312  	0.163656 
690.516128  	0.162717 
692.444944  	0.161775 
694.373760  	0.160684 
696.302576  	0.159861 
698.231392  	0.158990 
700.160208  	0.158096 
702.089024  	0.157025 
704.017840  	0.155976 
705.946656  	0.154609 
707.875472  	0.153346 
709.804288  	0.152394 
711.733104  	0.151608 
713.661920  	0.150556 
715.590736  	0.149736 
717.519552  	0.149332 
719.448368  	0.148872 
721.377184  	0.148801 
723.306000  	0.149100 
725.234816  	0.148977 
727.163632  	0.148463 
729.092448  	0.147465 
731.021264  	0.146516 
732.950080  	0.145391 
734.878896  	0.143969 
736.807712  	0.142479 
738.736528  	0.141363 
740.665344  	0.140537 
742.594160  	0.139788 
744.522976  	0.139102 
746.451792  	0.138529 
748.380608  	0.137821 
750.309424  	0.136855 
752.238240  	0.136058 
754.167056  	0.135848 
756.095872  	0.135363 
758.024688  	0.134664 
759.953504  	0.134144 
761.882320  	0.133878 
763.811136  	0.133362 
765.739952  	0.132900 
767.668768  	0.131969 
769.597584  	0.131128 
771.526400  	0.130640 
773.455216  	0.130608 
775.384032  	0.130905 
777.312848  	0.131577 
779.241664  	0.132535 
781.170480  	0.132687 
783.099296  	0.131500 
785.028112  	0.129646 
786.956928  	0.127328 
788.885744  	0.125061 
790.814560  	0.123164 
792.743376  	0.121927 
794.672192  	0.120920 
796.601008  	0.119958 
798.529824  	0.118461 
800.458640  	0.116679 
802.387456  	0.114947 
804.316272  	0.113544 
806.245088  	0.112471 
808.173904  	0.111802 
810.102720  	0.111333 
812.031536  	0.110831 
813.960352  	0.110200 
815.889168  	0.109489 
817.817984  	0.108875 
819.746800  	0.108465 
821.675616  	0.107792 
823.604432  	0.107138 
825.533248  	0.106105 
827.462064  	0.105074 
829.390880  	0.104153 
831.319696  	0.103192 
833.248512  	0.102185 
835.177328  	0.101181 
837.106144  	0.099836 
839.034960  	0.098398 
840.963776  	0.096954 
842.892592  	0.095713 
844.821408  	0.094390 
846.750224  	0.092841 
848.679040  	0.091353 
850.607856  	0.090016 
852.536672  	0.089003 
854.465488  	0.087993 
856.394304  	0.086353 
858.323120  	0.084792 
860.251936  	0.083300 
862.180752  	0.081680 
864.109568  	0.080049 
866.038384  	0.078516 
867.967200  	0.076954 
869.896016  	0.074973 
871.824832  	0.073288 
873.753648  	0.071271 
875.682464  	0.068744 
877.611280  	0.065422 
879.540096  	0.063210 
881.468912  	0.063878 
883.397728  	0.065238 
885.326544  	0.066941 
887.255360  	0.068648 
889.184176  	0.069386 
891.112992  	0.069154 
893.041808  	0.069680 
894.970624  	0.069851 
896.899440  	0.069095 
898.828256  	0.068392 
900.757072  	0.067968 
902.685888  	0.067573 
904.614704  	0.067653 
906.543520  	0.067884 
908.472336  	0.068631 
910.401152  	0.069795 
912.329968  	0.070995 
914.258784  	0.072266 
916.187600  	0.073247 
918.116416  	0.073978 
920.045232  	0.074473 
921.974048  	0.074548 
923.902864  	0.074263 
925.831680  	0.073650 
927.760496  	0.073278 
929.689312  	0.072935 
931.618128  	0.072748 
933.546944  	0.072498 
935.475760  	0.072200 
937.404576  	0.072056 
939.333392  	0.071804 
941.262208  	0.071716 
943.191024  	0.072230 
945.119840  	0.072973 
947.048656  	0.073980 
948.977472  	0.075418 
950.906288  	0.077030 
952.835104  	0.078699 
954.763920  	0.080452 
956.692736  	0.081869 
958.621552  	0.082853 
960.550368  	0.083279 
962.479184  	0.083140 
964.408000  	0.082326 
966.336816  	0.080850 
968.265632  	0.078489 
970.194448  	0.075350 
972.123264  	0.071658 
974.052080  	0.067803 
975.980896  	0.064122 
977.909712  	0.060586 
979.838528  	0.057555 
981.767344  	0.054868 
983.696160  	0.052538 
985.624976  	0.050880 
987.553792  	0.049835 
989.482608  	0.049390 
991.411424  	0.049280 
993.340240  	0.049704 
995.269056  	0.050551 
997.197872  	0.051443 
999.126688  	0.052192 
1001.055504  	0.053076 
1002.984320  	0.053906 
1004.913136  	0.054633 
1006.841952  	0.055318 
1008.770768  	0.055706 
1010.699584  	0.055727 
1012.628400  	0.055351 
1014.557216  	0.054813 
1016.486032  	0.054497 
1018.414848  	0.054132 
1020.343664  	0.053713 
1022.272480  	0.052856 
1024.201296  	0.051054 
1026.130112  	0.046738 
1028.058928  	0.043940 
1029.987744  	0.045349 
1031.916560  	0.044066 
1033.845376  	0.040235 
1035.774192  	0.034706 
1037.703008  	0.029462 
1039.631824  	0.026193 
1041.560640  	0.023276 
1043.489456  	0.021248 
1045.418272  	0.021166 
1047.347088  	0.023512 
1049.275904  	0.028261 
1051.204720  	0.034166 
1053.133536  	0.040835 
1055.062352  	0.046963 
1056.991168  	0.051646 
1058.919984  	0.058289 
1060.848800  	0.064616 
1062.777616  	0.065868 
1064.706432  	0.062105 
1066.635248  	0.059870 
1068.564064  	0.063467 
1070.492880  	0.063866 
1072.421696  	0.060429 
1074.350512  	0.057323 
1076.279328  	0.055328 
1078.208144  	0.054264 
1080.136960  	0.054808 
1082.065776  	0.056457 
1083.994592  	0.057878 
1085.923408  	0.059054 
1087.852224  	0.060150 
1089.781040  	0.061856 
1091.709856  	0.064583 
1093.638672  	0.066013 
1095.567488  	0.066109 
1097.496304  	0.065328 
1099.425120  	0.063941 
1101.353936  	0.062316 
1103.282752  	0.060477 
1105.211568  	0.058338 
1107.140384  	0.056142 
1109.069200  	0.054116 
1110.998016  	0.052278 
1112.926832  	0.050250 
1114.855648  	0.047987 
1116.784464  	0.045802 
1118.713280  	0.043723 
1120.642096  	0.041653 
1122.570912  	0.039732 
1124.499728  	0.037605 
1126.428544  	0.035420 
1128.357360  	0.033497 
1130.286176  	0.031940 
1132.214992  	0.030405 
1134.143808  	0.028880 
1136.072624  	0.027497 
1138.001440  	0.026205 
1139.930256  	0.025024 
1141.859072  	0.023864 
1143.787888  	0.022594 
1145.716704  	0.021555 
1147.645520  	0.020723 
1149.574336  	0.019745 
1151.503152  	0.018926 
1153.431968  	0.018573 
1155.360784  	0.018188 
1157.289600  	0.018028 
1159.218416  	0.018222 
1161.147232  	0.018599 
1163.076048  	0.018990 
1165.004864  	0.019272 
1166.933680  	0.019524 
1168.862496  	0.019975 
1170.791312  	0.020591 
1172.720128  	0.021306 
1174.648944  	0.021898 
1176.577760  	0.022498 
1178.506576  	0.023069 
1180.435392  	0.023748 
1182.364208  	0.024310 
1184.293024  	0.024929 
1186.221840  	0.025521 
1188.150656  	0.026298 
1190.079472  	0.027285 
1192.008288  	0.028558 
1193.937104  	0.030073 
1195.865920  	0.031876 
1197.794736  	0.033563 
1199.723552  	0.035515 
1201.652368  	0.037673 
1203.581184  	0.040181 
1205.510000  	0.042637 
1207.438816  	0.044940 
1209.367632  	0.047175 
1211.296448  	0.049296 
1213.225264  	0.051036 
1215.154080  	0.052491 
1217.082896  	0.053635 
1219.011712  	0.054446 
1220.940528  	0.055070 
1222.869344  	0.055807 
1224.798160  	0.056503 
1226.726976  	0.056993 
1228.655792  	0.057555 
1230.584608  	0.058178 
1232.513424  	0.058855 
1234.442240  	0.059648 
1236.371056  	0.059970 
1238.299872  	0.059502 
1240.228688  	0.056711 
1242.157504  	0.054440 
1244.086320  	0.053975 
1246.015136  	0.051675 
1247.943952  	0.048231 
1249.872768  	0.045111 
1251.801584  	0.043047 
1253.730400  	0.040843 
1255.659216  	0.038487 
1257.588032  	0.036209 
1259.516848  	0.034220 
1261.445664  	0.032205 
1263.374480  	0.030458 
1265.303296  	0.029246 
1267.232112  	0.028213 
1269.160928  	0.027290 
1271.089744  	0.026674 
1273.018560  	0.026284 
1274.947376  	0.026145 
1276.876192  	0.026128 
1278.805008  	0.026072 
1280.733824  	0.025822 
1282.662640  	0.025170 
1284.591456  	0.024258 
1286.520272  	0.023405 
1288.449088  	0.022695 
1290.377904  	0.022035 
1292.306720  	0.021532 
1294.235536  	0.020850 
1296.164352  	0.019972 
1298.093168  	0.018720 
1300.021984  	0.017368 
1301.950800  	0.016056 
1303.879616  	0.014802 
1305.808432  	0.013656 
1307.737248  	0.012655 
1309.666064  	0.011629 
1311.594880  	0.011133 
1313.523696  	0.010753 
1315.452512  	0.010331 
1317.381328  	0.010361 
1319.310144  	0.010353 
1321.238960  	0.009881 
1323.167776  	0.009800 
1325.096592  	0.009900 
1327.025408  	0.010087 
1328.954224  	0.010059 
1330.883040  	0.009903 
1332.811856  	0.009558 
1334.740672  	0.009366 
1336.669488  	0.009836 
1338.598304  	0.010725 
1340.527120  	0.010109 
1342.455936  	0.008576 
1344.384752  	0.008191 
1346.313568  	0.008421 
1348.242384  	0.008750 
1350.171200  	0.009197 
1352.100016  	0.009677 
1354.028832  	0.010448 
1355.957648  	0.010906 
1357.886464  	0.011258 
1359.815280  	0.012350 
1361.744096  	0.014155 
1363.672912  	0.013869 
1365.601728  	0.012155 
1367.530544  	0.011577 
1369.459360  	0.010545 
1371.388176  	0.009266 
1373.316992  	0.008892 
1375.245808  	0.006840 
1377.174624  	0.003844 
1379.103440  	0.001797 
1381.032256  	0.000206 
1382.961072  	-0.000476 
1384.889888  	0.000265 
1386.818704  	0.002079 
1388.747520  	0.001876 
1390.676336  	-0.000220 
1392.605152  	-0.002936 
1394.533968  	-0.002549 
1396.462784  	0.001278 
1398.391600  	0.002596 
1400.320416  	0.000873 
1402.249232  	-0.000995 
1404.178048  	-0.000760 
1406.106864  	-0.001045 
1408.035680  	-0.000980 
1409.964496  	0.000467 
1411.893312  	0.002283 
1413.822128  	0.004116 
1415.750944  	0.007181 
1417.679760  	0.011036 
1419.608576  	0.012246 
1421.537392  	0.010530 
1423.466208  	0.010783 
1425.395024  	0.009896 
1427.323840  	0.009258 
1429.252656  	0.009931 
1431.181472  	0.009636 
1433.110288  	0.009132 
1435.039104  	0.010791 
1436.967920  	0.011727 
1438.896736  	0.009681 
1440.825552  	0.008792 
1442.754368  	0.008818 
1444.683184  	0.008916 
1446.612000  	0.009967 
1448.540816  	0.009691 
1450.469632  	0.008664 
1452.398448  	0.009306 
1454.327264  	0.011574 
1456.256080  	0.016483 
1458.184896  	0.017076 
1460.113712  	0.013132 
1462.042528  	0.012118 
1463.971344  	0.014326 
1465.900160  	0.015194 
1467.828976  	0.014955 
1469.757792  	0.017184 
1471.686608  	0.022104 
1473.615424  	0.024410 
1475.544240  	0.023760 
1477.473056  	0.023050 
1479.401872  	0.022880 
1481.330688  	0.023880 
1483.259504  	0.023915 
1485.188320  	0.025041 
1487.117136  	0.027223 
1489.045952  	0.028975 
1490.974768  	0.026680 
1492.903584  	0.023166 
1494.832400  	0.023126 
1496.761216  	0.023655 
1498.690032  	0.021473 
1500.618848  	0.018855 
1502.547664  	0.017689 
1504.476480  	0.020036 
1506.405296  	0.025860 
1508.334112  	0.022965 
1510.262928  	0.018099 
1512.191744  	0.015950 
1514.120560  	0.015875 
1516.049376  	0.018442 
1517.978192  	0.019237 
1519.907008  	0.020603 
1521.835824  	0.023027 
1523.764640  	0.021620 
1525.693456  	0.021993 
1527.622272  	0.021687 
1529.551088  	0.020575 
1531.479904  	0.021427 
1533.408720  	0.023013 
1535.337536  	0.020359 
1537.266352  	0.020944 
1539.195168  	0.025704 
1541.123984  	0.025149 
1543.052800  	0.021180 
1544.981616  	0.018091 
1546.910432  	0.014791 
1548.839248  	0.014892 
1550.768064  	0.015058 
1552.696880  	0.015043 
1554.625696  	0.016930 
1556.554512  	0.019888 
1558.483328  	0.026791 
1560.412144  	0.021962 
1562.340960  	0.017815 
1564.269776  	0.018566 
1566.198592  	0.019866 
1568.127408  	0.022338 
1570.056224  	0.024669 
1571.985040  	0.023892 
1573.913856  	0.025816 
1575.842672  	0.028901 
1577.771488  	0.027874 
1579.700304  	0.025819 
1581.629120  	0.025215 
1583.557936  	0.025039 
1585.486752  	0.025460 
1587.415568  	0.026292 
1589.344384  	0.027803 
1591.273200  	0.029589 
1593.202016  	0.031946 
1595.130832  	0.034141 
1597.059648  	0.035884 
1598.988464  	0.037399 
1600.917280  	0.039138 
1602.846096  	0.040251 
1604.774912  	0.040694 
1606.703728  	0.040936 
1608.632544  	0.041158 
1610.561360  	0.040382 
1612.490176  	0.039925 
1614.418992  	0.041038 
1616.347808  	0.043417 
1618.276624  	0.042202 
1620.205440  	0.042072 
1622.134256  	0.045062 
1624.063072  	0.047800 
1625.991888  	0.048934 
1627.920704  	0.051744 
1629.849520  	0.053527 
1631.778336  	0.056437 
1633.707152  	0.061492 
1635.635968  	0.068461 
1637.564784  	0.069349 
1639.493600  	0.069277 
1641.422416  	0.070731 
1643.351232  	0.073568 
1645.280048  	0.078035 
1647.208864  	0.081891 
1649.137680  	0.079773 
1651.066496  	0.080890 
1652.995312  	0.085631 
1654.924128  	0.080772 
1656.852944  	0.076187 
1658.781760  	0.074849 
1660.710576  	0.075259 
1662.639392  	0.075826 
1664.568208  	0.073528 
1666.497024  	0.072974 
1668.425840  	0.074792 
1670.354656  	0.074729 
1672.283472  	0.072345 
1674.212288  	0.072411 
1676.141104  	0.071583 
1678.069920  	0.070423 
1679.998736  	0.071753 
1681.927552  	0.074724 
1683.856368  	0.079032 
1685.785184  	0.075847 
1687.714000  	0.073573 
1689.642816  	0.073268 
1691.571632  	0.071903 
1693.500448  	0.072600 
1695.429264  	0.075151 
1697.358080  	0.074965 
1699.286896  	0.075239 
1701.215712  	0.071879 
1703.144528  	0.067968 
1705.073344  	0.066896 
1707.002160  	0.063456 
1708.930976  	0.059572 
1710.859792  	0.056692 
1712.788608  	0.054972 
1714.717424  	0.054350 
1716.646240  	0.052839 
1718.575056  	0.046928 
1720.503872  	0.039508 
1722.432688  	0.035482 
1724.361504  	0.031698 
1726.290320  	0.028159 
1728.219136  	0.026154 
1730.147952  	0.025161 
1732.076768  	0.024589 
1734.005584  	0.023955 
1735.934400  	0.018348 
1737.863216  	0.016720 
1739.792032  	0.016192 
1741.720848  	0.014382 
1743.649664  	0.013281 
1745.578480  	0.012474 
1747.507296  	0.012889 
1749.436112  	0.013132 
1751.364928  	0.011026 
1753.293744  	0.008097 
1755.222560  	0.007557 
1757.151376  	0.008002 
1759.080192  	0.007178 
1761.009008  	0.007617 
1762.937824  	0.006695 
1764.866640  	0.005491 
1766.795456  	0.006328 
1768.724272  	0.007254 
1770.653088  	0.008486 
1772.581904  	0.009139 
1774.510720  	0.006629 
1776.439536  	0.005355 
1778.368352  	0.005065 
1780.297168  	0.005678 
1782.225984  	0.004954 
1784.154800  	0.004826 
1786.083616  	0.004361 
1788.012432  	0.004218 
1789.941248  	0.005707 
1791.870064  	0.007339 
1793.798880  	0.005822 
1795.727696  	0.004903 
1797.656512  	0.004848 
1799.585328  	0.005501 
1801.514144  	0.005159 
1803.442960  	0.003897 
1805.371776  	0.003277 
1807.300592  	0.003669 
1809.229408  	0.004112 
1811.158224  	0.004462 
1813.087040  	0.003618 
1815.015856  	0.002959 
1816.944672  	0.003004 
1818.873488  	0.003269 
1820.802304  	0.003281 
1822.731120  	0.003937 
1824.659936  	0.004828 
1826.588752  	0.004679 
1828.517568  	0.005382 
1830.446384  	0.005540 
1832.375200  	0.003603 
1834.304016  	0.003155 
1836.232832  	0.003259 
1838.161648  	0.003352 
1840.090464  	0.003019 
1842.019280  	0.004246 
1843.948096  	0.005652 
1845.876912  	0.005002 
1847.805728  	0.004006 
1849.734544  	0.003323 
1851.663360  	0.002709 
1853.592176  	0.002771 
1855.520992  	0.002492 
1857.449808  	0.002636 
1859.378624  	0.002595 
1861.307440  	0.002411 
1863.236256  	0.002375 
1865.165072  	0.003215 
1867.093888  	0.004860 
1869.022704  	0.005599 
1870.951520  	0.003718 
1872.880336  	0.002542 
1874.809152  	0.002279 
1876.737968  	0.002648 
1878.666784  	0.002542 
1880.595600  	0.002621 
1882.524416  	0.002621 
1884.453232  	0.002964 
1886.382048  	0.003055 
1888.310864  	0.003560 
1890.239680  	0.003258 
1892.168496  	0.002511 
1894.097312  	0.002700 
1896.026128  	0.002966 
1897.954944  	0.002488 
1899.883760  	0.002165 
1901.812576  	0.001931 
1903.741392  	0.001972 
1905.670208  	0.002001 
1907.599024  	0.002682 
1909.527840  	0.002994 
1911.456656  	0.002505 
1913.385472  	0.001793 
1915.314288  	0.002019 
1917.243104  	0.002985 
1919.171920  	0.002823 
1921.100736  	0.002282 
1923.029552  	0.002676 
1924.958368  	0.002056 
1926.887184  	0.001856 
1928.816000  	0.001649 
1930.744816  	0.001910 
1932.673632  	0.001967 
1934.602448  	0.001805 
1936.531264  	0.001375 
1938.460080  	0.001573 
1940.388896  	0.002397 
1942.317712  	0.002882 
1944.246528  	0.002511 
1946.175344  	0.002330 
1948.104160  	0.001577 
1950.032976  	0.001684 
1951.961792  	0.001666 
1953.890608  	0.001985 
1955.819424  	0.001700 
1957.748240  	0.001675 
1959.677056  	0.001445 
1961.605872  	0.002292 
1963.534688  	0.003041 
1965.463504  	0.003923 
1967.392320  	0.003445 
1969.321136  	0.002894 
1971.249952  	0.002522 
1973.178768  	0.003357 
1975.107584  	0.003124 
1977.036400  	0.003156 
1978.965216  	0.003439 
1980.894032  	0.004333 
1982.822848  	0.003257 
1984.751664  	0.002982 
1986.680480  	0.003484 
1988.609296  	0.004715 
1990.538112  	0.004624 
1992.466928  	0.004429 
1994.395744  	0.003572 
1996.324560  	0.003296 
1998.253376  	0.002885 
2000.182192  	0.002448 
2002.111008  	0.002594 
2004.039824  	0.003111 
2005.968640  	0.001737 
2007.897456  	0.001945 
2009.826272  	0.002280 
2011.755088  	0.003175 
2013.683904  	0.003581 
2015.612720  	0.003728 
2017.541536  	0.003005 
2019.470352  	0.003320 
2021.399168  	0.004140 
2023.327984  	0.004376 
2025.256800  	0.003714 
2027.185616  	0.003211 
2029.114432  	0.003068 
2031.043248  	0.003514 
2032.972064  	0.002339 
2034.900880  	0.002494 
2036.829696  	0.003053 
2038.758512  	0.003939 
2040.687328  	0.004790 
2042.616144  	0.003878 
2044.544960  	0.002510 
2046.473776  	0.002221 
2048.402592  	0.002851 
2050.331408  	0.004039 
2052.260224  	0.002797 
2054.189040  	0.001766 
2056.117856  	0.001689 
2058.046672  	0.002454 
2059.975488  	0.002505 
2061.904304  	0.002099 
2063.833120  	0.002352 
2065.761936  	0.002922 
2067.690752  	0.002606 
2069.619568  	0.001938 
2071.548384  	0.002241 
2073.477200  	0.002730 
2075.406016  	0.002002 
2077.334832  	0.001876 
2079.263648  	0.001907 
2081.192464  	0.001982 
2083.121280  	0.002053 
2085.050096  	0.002288 
2086.978912  	0.002108 
2088.907728  	0.002044 
2090.836544  	0.001661 
2092.765360  	0.001338 
2094.694176  	0.001232 
2096.622992  	0.001457 
2098.551808  	0.001398 
2100.480624  	0.001432 
2102.409440  	0.001328 
2104.338256  	0.001008 
2106.267072  	0.001254 
2108.195888  	0.002002 
2110.124704  	0.002156 
2112.053520  	0.001786 
2113.982336  	0.001304 
2115.911152  	0.001305 
2117.839968  	0.001565 
2119.768784  	0.001659 
2121.697600  	0.001248 
2123.626416  	0.001333 
2125.555232  	0.001277 
2127.484048  	0.000630 
2129.412864  	0.000036 
2131.341680  	-0.000216 
2133.270496  	0.000051 
2135.199312  	0.001345 
2137.128128  	0.001360 
2139.056944  	0.001139 
2140.985760  	0.000792 
2142.914576  	0.000843 
2144.843392  	0.000632 
2146.772208  	0.000386 
2148.701024  	0.001089 
2150.629840  	0.002283 
2152.558656  	0.001622 
2154.487472  	0.000833 
2156.416288  	0.000907 
2158.345104  	0.001494 
2160.273920  	0.003255 
2162.202736  	0.004322 
2164.131552  	0.003490 
2166.060368  	0.003862 
2167.989184  	0.003822 
2169.918000  	0.002424 
2171.846816  	0.000711 
2173.775632  	0.001287 
2175.704448  	0.002095 
2177.633264  	0.002210 
2179.562080  	0.001879 
2181.490896  	0.001983 
2183.419712  	0.001269 
2185.348528  	0.001520 
2187.277344  	0.001996 
2189.206160  	0.001239 
2191.134976  	0.000558 
2193.063792  	0.002046 
2194.992608  	0.003351 
2196.921424  	0.003134 
2198.850240  	0.002361 
2200.779056  	0.002434 
2202.707872  	0.002541 
2204.636688  	0.002332 
2206.565504  	0.002042 
2208.494320  	0.002453 
2210.423136  	0.002636 
2212.351952  	0.002565 
2214.280768  	0.002332 
2216.209584  	0.002752 
2218.138400  	0.003166 
2220.067216  	0.002985 
2221.996032  	0.002405 
2223.924848  	0.002600 
2225.853664  	0.002238 
2227.782480  	0.001811 
2229.711296  	0.002065 
2231.640112  	0.001998 
2233.568928  	0.001740 
2235.497744  	0.001790 
2237.426560  	0.001751 
2239.355376  	0.001921 
2241.284192  	0.001865 
2243.213008  	0.002106 
2245.141824  	0.002647 
2247.070640  	0.002439 
2248.999456  	0.002147 
2250.928272  	0.002001 
2252.857088  	0.001604 
2254.785904  	0.001498 
2256.714720  	0.001627 
2258.643536  	0.001734 
2260.572352  	0.001360 
2262.501168  	0.001371 
2264.429984  	0.001520 
2266.358800  	0.001842 
2268.287616  	0.002142 
2270.216432  	0.002305 
2272.145248  	0.002507 
2274.074064  	0.002302 
2276.002880  	0.002021 
2277.931696  	0.002271 
2279.860512  	0.002282 
2281.789328  	0.002464 
2283.718144  	0.002665 
2285.646960  	0.002808 
2287.575776  	0.002872 
2289.504592  	0.002646 
2291.433408  	0.002268 
2293.362224  	0.002112 
2295.291040  	0.002018 
2297.219856  	0.002089 
2299.148672  	0.001855 
2301.077488  	0.001711 
2303.006304  	0.001637 
2304.935120  	0.001467 
2306.863936  	0.001172 
2308.792752  	0.000860 
2310.721568  	0.000561 
2312.650384  	0.000471 
2314.579200  	0.000373 
2316.508016  	0.000163 
2318.436832  	-0.000076 
2320.365648  	-0.000376 
2322.294464  	-0.000671 
2324.223280  	-0.001017 
2326.152096  	-0.002056 
2328.080912  	-0.002717 
2330.009728  	-0.003216 
2331.938544  	-0.003647 
2333.867360  	-0.003845 
2335.796176  	-0.004018 
2337.724992  	-0.004192 
2339.653808  	-0.004086 
2341.582624  	-0.004197 
2343.511440  	-0.004187 
2345.440256  	-0.003971 
2347.369072  	-0.002822 
2349.297888  	-0.001927 
2351.226704  	-0.002413 
2353.155520  	-0.003776 
2355.084336  	-0.004848 
2357.013152  	-0.006034 
2358.941968  	-0.006604 
2360.870784  	-0.007088 
2362.799600  	-0.007516 
2364.728416  	-0.007075 
2366.657232  	-0.006132 
2368.586048  	-0.005262 
2370.514864  	-0.004034 
2372.443680  	-0.003110 
2374.372496  	-0.002160 
2376.301312  	-0.001162 
2378.230128  	-0.000266 
2380.158944  	0.000456 
2382.087760  	0.000948 
2384.016576  	0.001320 
2385.945392  	0.001782 
2387.874208  	0.001883 
2389.803024  	0.002038 
2391.731840  	0.002073 
2393.660656  	0.001976 
2395.589472  	0.001842 
2397.518288  	0.001919 
2399.447104  	0.001805 
2401.375920  	0.001755 
2403.304736  	0.001926 
2405.233552  	0.001941 
2407.162368  	0.001892 
2409.091184  	0.001901 
2411.020000  	0.001932 
2412.948816  	0.002076 
2414.877632  	0.002173 
2416.806448  	0.002141 
2418.735264  	0.002228 
2420.664080  	0.002361 
2422.592896  	0.002345 
2424.521712  	0.002311 
2426.450528  	0.002264 
2428.379344  	0.002198 
2430.308160  	0.002036 
2432.236976  	0.002120 
2434.165792  	0.002394 
2436.094608  	0.002395 
2438.023424  	0.002480 
2439.952240  	0.002696 
2441.881056  	0.002651 
2443.809872  	0.002620 
2445.738688  	0.002600 
2447.667504  	0.002442 
2449.596320  	0.002643 
2451.525136  	0.002613 
2453.453952  	0.002456 
2455.382768  	0.002631 
2457.311584  	0.002703 
2459.240400  	0.002635 
2461.169216  	0.002428 
2463.098032  	0.002361 
2465.026848  	0.002455 
2466.955664  	0.002719 
2468.884480  	0.002806 
2470.813296  	0.002767 
2472.742112  	0.002699 
2474.670928  	0.002941 
2476.599744  	0.002927 
2478.528560  	0.002774 
2480.457376  	0.002485 
2482.386192  	0.002441 
2484.315008  	0.002340 
2486.243824  	0.002431 
2488.172640  	0.002815 
2490.101456  	0.003077 
2492.030272  	0.002786 
2493.959088  	0.002568 
2495.887904  	0.002617 
2497.816720  	0.002610 
2499.745536  	0.002434 
2501.674352  	0.002697 
2503.603168  	0.003097 
2505.531984  	0.003162 
2507.460800  	0.003056 
2509.389616  	0.003043 
2511.318432  	0.002735 
2513.247248  	0.002727 
2515.176064  	0.003031 
2517.104880  	0.003145 
2519.033696  	0.003066 
2520.962512  	0.003083 
2522.891328  	0.002987 
2524.820144  	0.002840 
2526.748960  	0.002958 
2528.677776  	0.003309 
2530.606592  	0.003244 
2532.535408  	0.002987 
2534.464224  	0.002894 
2536.393040  	0.002860 
2538.321856  	0.002885 
2540.250672  	0.002917 
2542.179488  	0.003164 
2544.108304  	0.003321 
2546.037120  	0.003391 
2547.965936  	0.003334 
2549.894752  	0.003430 
2551.823568  	0.003689 
2553.752384  	0.003600 
2555.681200  	0.003571 
2557.610016  	0.003647 
2559.538832  	0.003912 
2561.467648  	0.003976 
2563.396464  	0.003976 
2565.325280  	0.003970 
2567.254096  	0.003939 
2569.182912  	0.003908 
2571.111728  	0.003930 
2573.040544  	0.003783 
2574.969360  	0.003803 
2576.898176  	0.003980 
2578.826992  	0.004297 
2580.755808  	0.004353 
2582.684624  	0.004107 
2584.613440  	0.004124 
2586.542256  	0.004337 
2588.471072  	0.004339 
2590.399888  	0.004330 
2592.328704  	0.004497 
2594.257520  	0.004465 
2596.186336  	0.004378 
2598.115152  	0.004325 
2600.043968  	0.004220 
2601.972784  	0.004329 
2603.901600  	0.004542 
2605.830416  	0.004659 
2607.759232  	0.004763 
2609.688048  	0.004873 
2611.616864  	0.004875 
2613.545680  	0.004849 
2615.474496  	0.004776 
2617.403312  	0.004760 
2619.332128  	0.004755 
2621.260944  	0.004808 
2623.189760  	0.004829 
2625.118576  	0.005036 
2627.047392  	0.005094 
2628.976208  	0.005031 
2630.905024  	0.005120 
2632.833840  	0.005223 
2634.762656  	0.005211 
2636.691472  	0.005322 
2638.620288  	0.005359 
2640.549104  	0.005428 
2642.477920  	0.005382 
2644.406736  	0.005541 
2646.335552  	0.005618 
2648.264368  	0.005620 
2650.193184  	0.005657 
2652.122000  	0.005649 
2654.050816  	0.005664 
2655.979632  	0.005697 
2657.908448  	0.005764 
2659.837264  	0.005795 
2661.766080  	0.005767 
2663.694896  	0.005653 
2665.623712  	0.005556 
2667.552528  	0.005579 
2669.481344  	0.005629 
2671.410160  	0.005675 
2673.338976  	0.005776 
2675.267792  	0.005971 
2677.196608  	0.006095 
2679.125424  	0.006002 
2681.054240  	0.005862 
2682.983056  	0.005790 
2684.911872  	0.005852 
2686.840688  	0.005931 
2688.769504  	0.005948 
2690.698320  	0.006004 
2692.627136  	0.005997 
2694.555952  	0.006032 
2696.484768  	0.006027 
2698.413584  	0.006004 
2700.342400  	0.006029 
2702.271216  	0.006035 
2704.200032  	0.005994 
2706.128848  	0.006131 
2708.057664  	0.006181 
2709.986480  	0.006148 
2711.915296  	0.006235 
2713.844112  	0.006378 
2715.772928  	0.006421 
2717.701744  	0.006375 
2719.630560  	0.006288 
2721.559376  	0.006298 
2723.488192  	0.006288 
2725.417008  	0.006175 
2727.345824  	0.006111 
2729.274640  	0.006175 
2731.203456  	0.006280 
2733.132272  	0.006348 
2735.061088  	0.006350 
2736.989904  	0.006331 
2738.918720  	0.006227 
2740.847536  	0.006248 
2742.776352  	0.006305 
2744.705168  	0.006329 
2746.633984  	0.006381 
2748.562800  	0.006358 
2750.491616  	0.006434 
2752.420432  	0.006556 
2754.349248  	0.006448 
2756.278064  	0.006394 
2758.206880  	0.006524 
2760.135696  	0.006497 
2762.064512  	0.006487 
2763.993328  	0.006560 
2765.922144  	0.006579 
2767.850960  	0.006504 
2769.779776  	0.006541 
2771.708592  	0.006578 
2773.637408  	0.006578 
2775.566224  	0.006599 
2777.495040  	0.006508 
2779.423856  	0.006574 
2781.352672  	0.006586 
2783.281488  	0.006461 
2785.210304  	0.006373 
2787.139120  	0.006404 
2789.067936  	0.006424 
2790.996752  	0.006328 
2792.925568  	0.006232 
2794.854384  	0.006178 
2796.783200  	0.006210 
2798.712016  	0.006138 
2800.640832  	0.005988 
2802.569648  	0.005924 
2804.498464  	0.005919 
2806.427280  	0.005951 
2808.356096  	0.005836 
2810.284912  	0.005724 
2812.213728  	0.005694 
2814.142544  	0.005550 
2816.071360  	0.005378 
2818.000176  	0.005316 
2819.928992  	0.005271 
2821.857808  	0.005083 
2823.786624  	0.004828 
2825.715440  	0.004656 
2827.644256  	0.004529 
2829.573072  	0.004233 
2831.501888  	0.003973 
2833.430704  	0.003805 
2835.359520  	0.003484 
2837.288336  	0.003054 
2839.217152  	0.002754 
2841.145968  	0.002484 
2843.074784  	0.002193 
2845.003600  	0.002086 
2846.932416  	0.001955 
2848.861232  	0.001796 
2850.790048  	0.001460 
2852.718864  	0.000586 
2854.647680  	-0.000559 
2856.576496  	-0.001954 
2858.505312  	-0.003306 
2860.434128  	-0.004481 
2862.362944  	-0.005622 
2864.291760  	-0.006788 
2866.220576  	-0.007845 
2868.149392  	-0.008890 
2870.078208  	-0.009738 
2872.007024  	-0.010141 
2873.935840  	-0.010600 
2875.864656  	-0.011167 
2877.793472  	-0.011819 
2879.722288  	-0.012533 
2881.651104  	-0.013536 
2883.579920  	-0.014296 
2885.508736  	-0.014428 
2887.437552  	-0.014140 
2889.366368  	-0.014123 
2891.295184  	-0.014621 
2893.224000  	-0.014933 
2895.152816  	-0.014919 
2897.081632  	-0.015219 
2899.010448  	-0.016971 
2900.939264  	-0.018590 
2902.868080  	-0.017080 
2904.796896  	-0.015355 
2906.725712  	-0.014484 
2908.654528  	-0.013825 
2910.583344  	-0.013388 
2912.512160  	-0.012387 
2914.440976  	-0.010624 
2916.369792  	-0.009353 
2918.298608  	-0.008993 
2920.227424  	-0.008990 
2922.156240  	-0.008966 
2924.085056  	-0.008854 
2926.013872  	-0.008657 
2927.942688  	-0.008384 
2929.871504  	-0.007936 
2931.800320  	-0.007429 
2933.729136  	-0.007121 
2935.657952  	-0.007129 
2937.586768  	-0.006888 
2939.515584  	-0.006680 
2941.444400  	-0.006851 
2943.373216  	-0.006985 
2945.302032  	-0.006723 
2947.230848  	-0.006530 
2949.159664  	-0.006973 
2951.088480  	-0.007788 
2953.017296  	-0.008675 
2954.946112  	-0.009537 
2956.874928  	-0.010536 
2958.803744  	-0.011783 
2960.732560  	-0.013131 
2962.661376  	-0.014671 
2964.590192  	-0.016741 
2966.519008  	-0.019360 
2968.447824  	-0.021760 
2970.376640  	-0.023449 
2972.305456  	-0.024406 
2974.234272  	-0.024321 
2976.163088  	-0.023765 
2978.091904  	-0.022768 
2980.020720  	-0.021730 
2981.949536  	-0.020495 
2983.878352  	-0.019585 
2985.807168  	-0.019802 
2987.735984  	-0.020133 
2989.664800  	-0.018898 
2991.593616  	-0.014693 
2993.522432  	-0.012131 
2995.451248  	-0.011290 
2997.380064  	-0.010102 
2999.308880  	-0.008475 
3001.237696  	-0.006802 
3003.166512  	-0.005320 
3005.095328  	-0.003868 
3007.024144  	-0.002199 
3008.952960  	-0.000416 
3010.881776  	0.001305 
3012.810592  	0.002694 
3014.739408  	0.003904 
3016.668224  	0.005138 
3018.597040  	0.006285 
3020.525856  	0.007465 
3022.454672  	0.008586 
3024.383488  	0.009671 
3026.312304  	0.010588 
3028.241120  	0.011300 
3030.169936  	0.012240 
3032.098752  	0.013071 
3034.027568  	0.013830 
3035.956384  	0.014382 
3037.885200  	0.014827 
3039.814016  	0.015315 
3041.742832  	0.015769 
3043.671648  	0.016190 
3045.600464  	0.016444 
3047.529280  	0.016756 
3049.458096  	0.017126 
3051.386912  	0.017195 
3053.315728  	0.017300 
3055.244544  	0.017796 
3057.173360  	0.018184 
3059.102176  	0.018190 
3061.030992  	0.018259 
3062.959808  	0.018606 
3064.888624  	0.018950 
3066.817440  	0.019155 
3068.746256  	0.019326 
3070.675072  	0.019438 
3072.603888  	0.019512 
3074.532704  	0.019662 
3076.461520  	0.019970 
3078.390336  	0.020093 
3080.319152  	0.020170 
3082.247968  	0.020358 
3084.176784  	0.020484 
3086.105600  	0.020649 
3088.034416  	0.020915 
3089.963232  	0.020992 
3091.892048  	0.021154 
3093.820864  	0.021380 
3095.749680  	0.021773 
3097.678496  	0.021916 
3099.607312  	0.021912 
3101.536128  	0.022124 
3103.464944  	0.022353 
3105.393760  	0.022473 
3107.322576  	0.022774 
3109.251392  	0.022896 
3111.180208  	0.022957 
3113.109024  	0.023105 
3115.037840  	0.023532 
3116.966656  	0.023830 
3118.895472  	0.023915 
3120.824288  	0.023910 
3122.753104  	0.024009 
3124.681920  	0.024156 
3126.610736  	0.024162 
3128.539552  	0.024138 
3130.468368  	0.024294 
3132.397184  	0.024545 
3134.326000  	0.024529 
3136.254816  	0.024477 
3138.183632  	0.024592 
3140.112448  	0.024602 
3142.041264  	0.024675 
3143.970080  	0.024775 
3145.898896  	0.025041 
3147.827712  	0.025142 
3149.756528  	0.025087 
3151.685344  	0.025220 
3153.614160  	0.025477 
3155.542976  	0.025568 
3157.471792  	0.025685 
3159.400608  	0.026001 
3161.329424  	0.026180 
3163.258240  	0.026064 
3165.187056  	0.026098 
3167.115872  	0.026287 
3169.044688  	0.026384 
3170.973504  	0.026443 
3172.902320  	0.026575 
3174.831136  	0.026717 
3176.759952  	0.026724 
3178.688768  	0.026511 
3180.617584  	0.026426 
3182.546400  	0.026611 
3184.475216  	0.026747 
3186.404032  	0.026635 
3188.332848  	0.026605 
3190.261664  	0.026717 
3192.190480  	0.026526 
3194.119296  	0.026412 
3196.048112  	0.026477 
3197.976928  	0.026514 
3199.905744  	0.026397 
3201.834560  	0.026205 
3203.763376  	0.026001 
3205.692192  	0.025762 
3207.621008  	0.025791 
3209.549824  	0.025820 
3211.478640  	0.025753 
3213.407456  	0.025680 
3215.336272  	0.025487 
3217.265088  	0.025246 
3219.193904  	0.025102 
3221.122720  	0.024885 
3223.051536  	0.024703 
3224.980352  	0.024439 
3226.909168  	0.024197 
3228.837984  	0.024054 
3230.766800  	0.023806 
3232.695616  	0.023606 
3234.624432  	0.023705 
3236.553248  	0.023568 
3238.482064  	0.023310 
3240.410880  	0.023257 
3242.339696  	0.023257 
3244.268512  	0.023220 
3246.197328  	0.023162 
3248.126144  	0.023051 
3250.054960  	0.022925 
3251.983776  	0.022955 
3253.912592  	0.023090 
3255.841408  	0.023003 
3257.770224  	0.022933 
3259.699040  	0.023039 
3261.627856  	0.023277 
3263.556672  	0.023373 
3265.485488  	0.023378 
3267.414304  	0.023163 
3269.343120  	0.023169 
3271.271936  	0.023302 
3273.200752  	0.023476 
3275.129568  	0.023639 
3277.058384  	0.023687 
3278.987200  	0.023417 
3280.916016  	0.023364 
3282.844832  	0.023557 
3284.773648  	0.023581 
3286.702464  	0.023572 
3288.631280  	0.023879 
3290.560096  	0.023999 
3292.488912  	0.023939 
3294.417728  	0.024042 
3296.346544  	0.024221 
3298.275360  	0.024407 
3300.204176  	0.024439 
3302.132992  	0.024417 
3304.061808  	0.024618 
3305.990624  	0.024922 
3307.919440  	0.025232 
3309.848256  	0.025268 
3311.777072  	0.025326 
3313.705888  	0.025578 
3315.634704  	0.025873 
3317.563520  	0.026170 
3319.492336  	0.026319 
3321.421152  	0.026242 
3323.349968  	0.026457 
3325.278784  	0.026723 
3327.207600  	0.026623 
3329.136416  	0.026688 
3331.065232  	0.026994 
3332.994048  	0.027058 
3334.922864  	0.027013 
3336.851680  	0.027025 
3338.780496  	0.027138 
3340.709312  	0.027232 
3342.638128  	0.027335 
3344.566944  	0.027158 
3346.495760  	0.026916 
3348.424576  	0.026907 
3350.353392  	0.026977 
3352.282208  	0.027009 
3354.211024  	0.027033 
3356.139840  	0.026899 
3358.068656  	0.026792 
3359.997472  	0.026761 
3361.926288  	0.026634 
3363.855104  	0.026475 
3365.783920  	0.026448 
3367.712736  	0.026436 
3369.641552  	0.026248 
3371.570368  	0.026199 
3373.499184  	0.026100 
3375.428000  	0.025905 
3377.356816  	0.025634 
3379.285632  	0.025563 
3381.214448  	0.025581 
3383.143264  	0.025597 
3385.072080  	0.025552 
3387.000896  	0.025373 
3388.929712  	0.025111 
3390.858528  	0.025057 
3392.787344  	0.025201 
3394.716160  	0.025053 
3396.644976  	0.025060 
3398.573792  	0.024959 
3400.502608  	0.024754 
3402.431424  	0.024630 
3404.360240  	0.024611 
3406.289056  	0.024589 
3408.217872  	0.024574 
3410.146688  	0.024437 
3412.075504  	0.024138 
3414.004320  	0.023872 
3415.933136  	0.023885 
3417.861952  	0.024050 
3419.790768  	0.024428 
3421.719584  	0.024391 
3423.648400  	0.023843 
3425.577216  	0.023656 
3427.506032  	0.023640 
3429.434848  	0.023507 
3431.363664  	0.023555 
3433.292480  	0.023457 
3435.221296  	0.023263 
3437.150112  	0.023267 
3439.078928  	0.023175 
3441.007744  	0.023252 
3442.936560  	0.023351 
3444.865376  	0.023250 
3446.794192  	0.023314 
3448.723008  	0.022859 
3450.651824  	0.022430 
3452.580640  	0.022148 
3454.509456  	0.021970 
3456.438272  	0.022030 
3458.367088  	0.021998 
3460.295904  	0.021864 
3462.224720  	0.021807 
3464.153536  	0.021486 
3466.082352  	0.021311 
3468.011168  	0.021096 
3469.939984  	0.020814 
3471.868800  	0.020602 
3473.797616  	0.020435 
3475.726432  	0.020268 
3477.655248  	0.020009 
3479.584064  	0.019844 
3481.512880  	0.019866 
3483.441696  	0.019504 
3485.370512  	0.018950 
3487.299328  	0.018706 
3489.228144  	0.018409 
3491.156960  	0.018133 
3493.085776  	0.018056 
3495.014592  	0.018049 
3496.943408  	0.017875 
3498.872224  	0.017442 
3500.801040  	0.017379 
3502.729856  	0.017838 
3504.658672  	0.017632 
3506.587488  	0.016840 
3508.516304  	0.016796 
3510.445120  	0.016522 
3512.373936  	0.015966 
3514.302752  	0.015766 
3516.231568  	0.015676 
3518.160384  	0.015739 
3520.089200  	0.015894 
3522.018016  	0.016178 
3523.946832  	0.016121 
3525.875648  	0.015863 
3527.804464  	0.015841 
3529.733280  	0.015234 
3531.662096  	0.014594 
3533.590912  	0.014395 
3535.519728  	0.014758 
3537.448544  	0.014463 
3539.377360  	0.013773 
3541.306176  	0.013755 
3543.234992  	0.014430 
3545.163808  	0.014986 
3547.092624  	0.014627 
3549.021440  	0.013669 
3550.950256  	0.013685 
3552.879072  	0.013479 
3554.807888  	0.012573 
3556.736704  	0.012333 
3558.665520  	0.012642 
3560.594336  	0.013005 
3562.523152  	0.013364 
3564.451968  	0.014592 
3566.380784  	0.016186 
3568.309600  	0.014863 
3570.238416  	0.012325 
3572.167232  	0.011212 
3574.096048  	0.011130 
3576.024864  	0.010996 
3577.953680  	0.010830 
3579.882496  	0.010658 
3581.811312  	0.010550 
3583.740128  	0.010801 
3585.668944  	0.012337 
3587.597760  	0.013104 
3589.526576  	0.010792 
3591.455392  	0.009627 
3593.384208  	0.010337 
3595.313024  	0.010177 
3597.241840  	0.009264 
3599.170656  	0.008953 
3601.099472  	0.008669 
3603.028288  	0.007801 
3604.957104  	0.007979 
3606.885920  	0.009124 
3608.814736  	0.008894 
3610.743552  	0.008187 
3612.672368  	0.008746 
3614.601184  	0.008510 
3616.530000  	0.008186 
3618.458816  	0.008540 
3620.387632  	0.007111 
3622.316448  	0.004870 
3624.245264  	0.004179 
3626.174080  	0.005426 
3628.102896  	0.007329 
3630.031712  	0.005784 
3631.960528  	0.003264 
3633.889344  	0.002091 
3635.818160  	0.001345 
3637.746976  	0.000764 
3639.675792  	0.000080 
3641.604608  	-0.000340 
3643.533424  	-0.000372 
3645.462240  	0.001023 
3647.391056  	0.003884 
3649.319872  	0.004207 
3651.248688  	0.000582 
3653.177504  	-0.002882 
3655.106320  	-0.003303 
3657.035136  	-0.004302 
3658.963952  	-0.006091 
3660.892768  	-0.006982 
3662.821584  	-0.007436 
3664.750400  	-0.007120 
3666.679216  	-0.005838 
3668.608032  	-0.003272 
3670.536848  	-0.002813 
3672.465664  	-0.003742 
3674.394480  	-0.002374 
3676.323296  	-0.003408 
3678.252112  	-0.004659 
3680.180928  	-0.005472 
3682.109744  	-0.006839 
3684.038560  	-0.007089 
3685.967376  	-0.005566 
3687.896192  	-0.003422 
3689.825008  	-0.002637 
3691.753824  	-0.004099 
3693.682640  	-0.005640 
3695.611456  	-0.005964 
3697.540272  	-0.005636 
3699.469088  	-0.004338 
3701.397904  	-0.002841 
3703.326720  	-0.002676 
3705.255536  	-0.002625 
3707.184352  	-0.001389 
3709.113168  	0.000782 
3711.041984  	0.002688 
3712.970800  	0.001461 
3714.899616  	-0.000345 
3716.828432  	-0.000809 
3718.757248  	-0.000455 
3720.686064  	0.000079 
3722.614880  	0.000628 
3724.543696  	0.000916 
3726.472512  	0.000761 
3728.401328  	-0.000150 
3730.330144  	0.000746 
3732.258960  	0.003250 
3734.187776  	0.005719 
3736.116592  	0.004935 
3738.045408  	0.002121 
3739.974224  	0.001673 
3741.903040  	0.003047 
3743.831856  	0.004563 
3745.760672  	0.003748 
3747.689488  	0.003989 
3749.618304  	0.005234 
3751.547120  	0.004346 
3753.475936  	0.001572 
3755.404752  	0.000628 
3757.333568  	0.001152 
3759.262384  	0.001611 
3761.191200  	0.000507 
3763.120016  	0.000083 
3765.048832  	0.000672 
3766.977648  	0.000635 
3768.906464  	0.000885 
3770.835280  	0.000131 
3772.764096  	-0.001399 
3774.692912  	-0.001775 
3776.621728  	-0.001180 
3778.550544  	0.000203 
3780.479360  	0.000108 
3782.408176  	-0.000651 
3784.336992  	-0.000484 
3786.265808  	-0.001036 
3788.194624  	-0.001753 
3790.123440  	-0.001907 
3792.052256  	-0.001715 
3793.981072  	-0.000856 
3795.909888  	0.000742 
3797.838704  	0.001384 
3799.767520  	0.002224 
3801.696336  	0.003062 
3803.625152  	0.001524 
3805.553968  	0.001044 
3807.482784  	0.000654 
3809.411600  	-0.000697 
3811.340416  	-0.001088 
3813.269232  	-0.000058 
3815.198048  	0.001666 
3817.126864  	0.001841 
3819.055680  	0.002743 
3820.984496  	0.003583 
3822.913312  	0.001306 
3824.842128  	0.000389 
3826.770944  	0.000383 
3828.699760  	-0.000041 
3830.628576  	0.000269 
3832.557392  	0.000870 
3834.486208  	0.001514 
3836.415024  	0.002692 
3838.343840  	0.003329 
3840.272656  	0.002869 
3842.201472  	0.001560 
3844.130288  	0.000339 
3846.059104  	-0.000824 
3847.987920  	-0.000592 
3849.916736  	0.001417 
3851.845552  	0.004731 
3853.774368  	0.004980 
3855.703184  	0.001634 
3857.632000  	0.000271 
3859.560816  	-0.000138 
3861.489632  	0.000810 
3863.418448  	0.001884 
3865.347264  	0.001449 
3867.276080  	0.001082 
3869.204896  	0.002218 
3871.133712  	0.001856 
3873.062528  	0.001144 
3874.991344  	0.000226 
3876.920160  	-0.000641 
3878.848976  	0.000461 
3880.777792  	0.001305 
3882.706608  	0.000768 
3884.635424  	0.000744 
3886.564240  	-0.000199 
3888.493056  	-0.000492 
3890.421872  	0.000587 
3892.350688  	0.000364 
3894.279504  	-0.000731 
3896.208320  	-0.000534 
3898.137136  	0.000835 
3900.065952  	0.002012 
3901.994768  	0.002524 
3903.923584  	0.002204 
3905.852400  	0.000416 
3907.781216  	-0.001188 
3909.710032  	-0.001870 
3911.638848  	-0.001840 
3913.567664  	-0.001527 
3915.496480  	-0.000686 
3917.425296  	-0.000063 
3919.354112  	-0.000249 
3921.282928  	-0.000459 
3923.211744  	-0.000161 
3925.140560  	-0.000214 
3927.069376  	-0.000809 
3928.998192  	-0.000489 
3930.927008  	0.000029 
3932.855824  	-0.000311 
3934.784640  	-0.001082 
3936.713456  	-0.001431 
3938.642272  	-0.001571 
3940.571088  	-0.000877 
3942.499904  	-0.000194 
3944.428720  	-0.000630 
3946.357536  	-0.000821 
3948.286352  	-0.000573 
3950.215168  	-0.000711 
3952.143984  	-0.001301 
3954.072800  	-0.001734 
3956.001616  	-0.001674 
3957.930432  	-0.001656 
3959.859248  	-0.001568 
3961.788064  	-0.001550 
3963.716880  	-0.001878 
3965.645696  	-0.001876 
3967.574512  	-0.001633 
3969.503328  	-0.001611 
3971.432144  	-0.001707 
3973.360960  	-0.001500 
3975.289776  	-0.001397 
3977.218592  	-0.001614 
3979.147408  	-0.001747 
3981.076224  	-0.001782 
3983.005040  	-0.001854 
3984.933856  	-0.001839 
3986.862672  	-0.001789 
3988.791488  	-0.001771 
3990.720304  	-0.001833 
3992.649120  	-0.001880 
3994.577936  	-0.001721 
3996.506752  	-0.001866 
3998.435568  	-0.002092 
4000.364384  	-0.001909 