##TITLE=No Description
##DATA TYPE=INFRARED SPECTRUM
##XUNITS=1/CM
##YUNITS=Abs
399.264912  	0.237799 
401.193728  	0.231379 
403.122544  	0.227078 
405.051360  	0.223633 
406.980176  	0.226945 
408.908992  	0.223758 
410.837808  	0.222429 
412.766624  	0.223299 
414.695440  	0.222766 
416.624256  	0.219604 
418.553072  	0.228041 
420.481888  	0.227198 
422.410704  	0.219519 
424.339520  	0.210290 
426.268336  	0.209258 
428.197152  	0.210741 
430.125968  	0.212731 
432.054784  	0.209421 
433.983600  	0.210049 
435.912416  	0.211658 
437.841232  	0.207526 
439.770048  	0.201230 
441.698864  	0.204097 
443.627680  	0.206110 
445.556496  	0.204550 
447.485312  	0.202067 
449.414128  	0.202797 
451.342944  	0.203321 
453.271760  	0.204587 
455.200576  	0.203978 
457.129392  	0.207233 
459.058208  	0.204925 
460.987024  	0.201645 
462.915840  	0.201110 
464.844656  	0.201500 
466.773472  	0.199720 
468.702288  	0.201155 
470.631104  	0.203182 
472.559920  	0.205046 
474.488736  	0.202703 
476.417552  	0.199335 
478.346368  	0.201186 
480.275184  	0.206172 
482.204000  	0.207153 
484.132816  	0.208127 
486.061632  	0.206931 
487.990448  	0.207480 
489.919264  	0.208100 
491.848080  	0.209811 
493.776896  	0.208797 
495.705712  	0.210061 
497.634528  	0.210078 
499.563344  	0.210117 
501.492160  	0.210499 
503.420976  	0.210282 
505.349792  	0.210293 
507.278608  	0.212449 
509.207424  	0.212365 
511.136240  	0.215150 
513.065056  	0.216006 
514.993872  	0.216346 
516.922688  	0.216601 
518.851504  	0.219382 
520.780320  	0.220641 
522.709136  	0.220398 
524.637952  	0.220477 
526.566768  	0.222353 
528.495584  	0.222704 
530.424400  	0.222509 
532.353216  	0.222262 
534.282032  	0.221212 
536.210848  	0.220007 
538.139664  	0.220577 
540.068480  	0.220232 
541.997296  	0.219007 
543.926112  	0.217632 
545.854928  	0.218504 
547.783744  	0.218440 
549.712560  	0.218398 
551.641376  	0.217059 
553.570192  	0.215638 
555.499008  	0.215440 
557.427824  	0.216205 
559.356640  	0.215608 
561.285456  	0.214703 
563.214272  	0.214158 
565.143088  	0.214109 
567.071904  	0.213755 
569.000720  	0.213206 
570.929536  	0.211858 
572.858352  	0.210919 
574.787168  	0.209732 
576.715984  	0.209526 
578.644800  	0.208335 
580.573616  	0.207327 
582.502432  	0.205975 
584.431248  	0.205512 
586.360064  	0.204287 
588.288880  	0.203467 
590.217696  	0.203280 
592.146512  	0.203392 
594.075328  	0.201807 
596.004144  	0.200786 
597.932960  	0.200148 
599.861776  	0.200394 
601.790592  	0.200164 
603.719408  	0.199769 
605.648224  	0.199328 
607.577040  	0.199076 
609.505856  	0.198302 
611.434672  	0.197700 
613.363488  	0.196814 
615.292304  	0.197013 
617.221120  	0.196968 
619.149936  	0.196293 
621.078752  	0.195343 
623.007568  	0.195153 
624.936384  	0.194989 
626.865200  	0.194699 
628.794016  	0.194255 
630.722832  	0.193623 
632.651648  	0.193264 
634.580464  	0.193980 
636.509280  	0.193901 
638.438096  	0.193675 
640.366912  	0.193327 
642.295728  	0.193092 
644.224544  	0.192519 
646.153360  	0.191824 
648.082176  	0.190558 
650.010992  	0.189375 
651.939808  	0.188376 
653.868624  	0.187859 
655.797440  	0.186744 
657.726256  	0.185493 
659.655072  	0.183869 
661.583888  	0.182678 
663.512704  	0.181193 
665.441520  	0.179714 
667.370336  	0.177237 
669.299152  	0.175914 
671.227968  	0.175667 
673.156784  	0.174589 
675.085600  	0.172829 
677.014416  	0.171775 
678.943232  	0.170698 
680.872048  	0.170213 
682.800864  	0.169401 
684.729680  	0.168407 
686.658496  	0.167517 
688.587312  	0.166832 
690.516128  	0.166226 
692.444944  	0.165689 
694.373760  	0.164641 
696.302576  	0.163458 
698.231392  	0.162609 
700.160208  	0.162032 
702.089024  	0.161203 
704.017840  	0.160058 
705.946656  	0.158331 
707.875472  	0.157238 
709.804288  	0.156056 
711.733104  	0.155079 
713.661920  	0.153924 
715.590736  	0.153107 
717.519552  	0.152772 
719.448368  	0.152418 
721.377184  	0.152141 
723.306000  	0.152276 
725.234816  	0.151898 
727.163632  	0.151335 
729.092448  	0.150484 
731.021264  	0.149613 
732.950080  	0.148301 
734.878896  	0.147026 
736.807712  	0.145813 
738.736528  	0.144636 
740.665344  	0.143631 
742.594160  	0.143075 
744.522976  	0.142252 
746.451792  	0.141807 
748.380608  	0.141247 
750.309424  	0.140337 
752.238240  	0.139515 
754.167056  	0.138961 
756.095872  	0.138588 
758.024688  	0.137848 
759.953504  	0.137017 
761.882320  	0.136683 
763.811136  	0.136206 
765.739952  	0.135763 
767.668768  	0.134965 
769.597584  	0.134156 
771.526400  	0.133863 
773.455216  	0.133751 
775.384032  	0.133533 
777.312848  	0.134332 
779.241664  	0.135343 
781.170480  	0.135243 
783.099296  	0.134053 
785.028112  	0.132213 
786.956928  	0.129952 
788.885744  	0.127738 
790.814560  	0.125698 
792.743376  	0.124525 
794.672192  	0.123397 
796.601008  	0.122354 
798.529824  	0.120986 
800.458640  	0.119159 
802.387456  	0.117508 
804.316272  	0.116188 
806.245088  	0.114838 
808.173904  	0.114172 
810.102720  	0.113545 
812.031536  	0.113159 
813.960352  	0.112940 
815.889168  	0.112311 
817.817984  	0.111494 
819.746800  	0.110902 
821.675616  	0.110188 
823.604432  	0.109499 
825.533248  	0.108715 
827.462064  	0.107979 
829.390880  	0.107025 
831.319696  	0.105893 
833.248512  	0.104629 
835.177328  	0.103541 
837.106144  	0.102144 
839.034960  	0.100538 
840.963776  	0.098900 
842.892592  	0.097898 
844.821408  	0.096779 
846.750224  	0.095122 
848.679040  	0.093722 
850.607856  	0.092238 
852.536672  	0.091129 
854.465488  	0.090285 
856.394304  	0.088828 
858.323120  	0.087214 
860.251936  	0.085680 
862.180752  	0.084077 
864.109568  	0.082571 
866.038384  	0.081349 
867.967200  	0.079793 
869.896016  	0.078042 
871.824832  	0.076157 
873.753648  	0.074209 
875.682464  	0.072042 
877.611280  	0.068844 
879.540096  	0.066436 
881.468912  	0.067057 
883.397728  	0.068483 
885.326544  	0.070420 
887.255360  	0.072101 
889.184176  	0.072649 
891.112992  	0.072300 
893.041808  	0.072542 
894.970624  	0.072651 
896.899440  	0.072020 
898.828256  	0.071284 
900.757072  	0.070829 
902.685888  	0.070412 
904.614704  	0.070446 
906.543520  	0.070791 
908.472336  	0.071564 
910.401152  	0.072650 
912.329968  	0.073736 
914.258784  	0.074866 
916.187600  	0.075896 
918.116416  	0.076496 
920.045232  	0.076905 
921.974048  	0.077003 
923.902864  	0.076692 
925.831680  	0.076040 
927.760496  	0.075514 
929.689312  	0.075218 
931.618128  	0.075029 
933.546944  	0.074641 
935.475760  	0.074241 
937.404576  	0.073838 
939.333392  	0.073589 
941.262208  	0.073398 
943.191024  	0.073615 
945.119840  	0.074248 
947.048656  	0.075310 
948.977472  	0.076598 
950.906288  	0.077872 
952.835104  	0.079284 
954.763920  	0.080794 
956.692736  	0.081941 
958.621552  	0.082689 
960.550368  	0.082993 
962.479184  	0.082959 
964.408000  	0.082013 
966.336816  	0.080324 
968.265632  	0.077796 
970.194448  	0.074747 
972.123264  	0.071326 
974.052080  	0.067671 
975.980896  	0.064032 
977.909712  	0.060739 
979.838528  	0.057815 
981.767344  	0.055156 
983.696160  	0.053010 
985.624976  	0.051381 
987.553792  	0.050344 
989.482608  	0.049913 
991.411424  	0.049935 
993.340240  	0.050580 
995.269056  	0.051366 
997.197872  	0.051983 
999.126688  	0.052699 
1001.055504  	0.053588 
1002.984320  	0.054403 
1004.913136  	0.055072 
1006.841952  	0.055438 
1008.770768  	0.055791 
1010.699584  	0.055855 
1012.628400  	0.055516 
1014.557216  	0.055051 
1016.486032  	0.054616 
1018.414848  	0.054041 
1020.343664  	0.053406 
1022.272480  	0.052668 
1024.201296  	0.051012 
1026.130112  	0.046783 
1028.058928  	0.043898 
1029.987744  	0.045122 
1031.916560  	0.043954 
1033.845376  	0.040199 
1035.774192  	0.034562 
1037.703008  	0.029424 
1039.631824  	0.026258 
1041.560640  	0.023127 
1043.489456  	0.021085 
1045.418272  	0.020956 
1047.347088  	0.023299 
1049.275904  	0.027777 
1051.204720  	0.033388 
1053.133536  	0.039935 
1055.062352  	0.046018 
1056.991168  	0.050615 
1058.919984  	0.057096 
1060.848800  	0.063165 
1062.777616  	0.064531 
1064.706432  	0.061039 
1066.635248  	0.058852 
1068.564064  	0.062324 
1070.492880  	0.062859 
1072.421696  	0.059418 
1074.350512  	0.056117 
1076.279328  	0.054202 
1078.208144  	0.053388 
1080.136960  	0.053832 
1082.065776  	0.055142 
1083.994592  	0.056616 
1085.923408  	0.057902 
1087.852224  	0.059218 
1089.781040  	0.060987 
1091.709856  	0.063481 
1093.638672  	0.064767 
1095.567488  	0.064502 
1097.496304  	0.063845 
1099.425120  	0.062968 
1101.353936  	0.061688 
1103.282752  	0.059881 
1105.211568  	0.058010 
1107.140384  	0.056044 
1109.069200  	0.053975 
1110.998016  	0.052163 
1112.926832  	0.050016 
1114.855648  	0.047857 
1116.784464  	0.045832 
1118.713280  	0.043622 
1120.642096  	0.041667 
1122.570912  	0.039808 
1124.499728  	0.037686 
1126.428544  	0.035564 
1128.357360  	0.033639 
1130.286176  	0.032125 
1132.214992  	0.030728 
1134.143808  	0.029322 
1136.072624  	0.028034 
1138.001440  	0.026687 
1139.930256  	0.025555 
1141.859072  	0.024414 
1143.787888  	0.023153 
1145.716704  	0.022268 
1147.645520  	0.021452 
1149.574336  	0.020558 
1151.503152  	0.019691 
1153.431968  	0.019309 
1155.360784  	0.018883 
1157.289600  	0.018739 
1159.218416  	0.019039 
1161.147232  	0.019455 
1163.076048  	0.019742 
1165.004864  	0.020116 
1166.933680  	0.020512 
1168.862496  	0.020938 
1170.791312  	0.021488 
1172.720128  	0.022090 
1174.648944  	0.022755 
1176.577760  	0.023429 
1178.506576  	0.023965 
1180.435392  	0.024511 
1182.364208  	0.025021 
1184.293024  	0.025464 
1186.221840  	0.026017 
1188.150656  	0.026941 
1190.079472  	0.027955 
1192.008288  	0.029104 
1193.937104  	0.030561 
1195.865920  	0.032301 
1197.794736  	0.034031 
1199.723552  	0.036043 
1201.652368  	0.038084 
1203.581184  	0.040432 
1205.510000  	0.042767 
1207.438816  	0.045051 
1209.367632  	0.047149 
1211.296448  	0.049296 
1213.225264  	0.051083 
1215.154080  	0.052467 
1217.082896  	0.053613 
1219.011712  	0.054463 
1220.940528  	0.055085 
1222.869344  	0.055722 
1224.798160  	0.056249 
1226.726976  	0.056688 
1228.655792  	0.057283 
1230.584608  	0.057909 
1232.513424  	0.058550 
1234.442240  	0.059261 
1236.371056  	0.059659 
1238.299872  	0.059191 
1240.228688  	0.056436 
1242.157504  	0.054199 
1244.086320  	0.053666 
1246.015136  	0.051592 
1247.943952  	0.048354 
1249.872768  	0.045192 
1251.801584  	0.043177 
1253.730400  	0.041061 
1255.659216  	0.038688 
1257.588032  	0.036416 
1259.516848  	0.034531 
1261.445664  	0.032667 
1263.374480  	0.030986 
1265.303296  	0.029592 
1267.232112  	0.028539 
1269.160928  	0.027722 
1271.089744  	0.027165 
1273.018560  	0.026821 
1274.947376  	0.026654 
1276.876192  	0.026744 
1278.805008  	0.026805 
1280.733824  	0.026472 
1282.662640  	0.025741 
1284.591456  	0.024932 
1286.520272  	0.024061 
1288.449088  	0.023340 
1290.377904  	0.022791 
1292.306720  	0.022210 
1294.235536  	0.021521 
1296.164352  	0.020646 
1298.093168  	0.019509 
1300.021984  	0.018162 
1301.950800  	0.016811 
1303.879616  	0.015534 
1305.808432  	0.014396 
1307.737248  	0.013406 
1309.666064  	0.012431 
1311.594880  	0.011768 
1313.523696  	0.011300 
1315.452512  	0.010919 
1317.381328  	0.010918 
1319.310144  	0.010952 
1321.238960  	0.010677 
1323.167776  	0.010655 
1325.096592  	0.010801 
1327.025408  	0.010976 
1328.954224  	0.011008 
1330.883040  	0.010860 
1332.811856  	0.010478 
1334.740672  	0.010203 
1336.669488  	0.010330 
1338.598304  	0.010776 
1340.527120  	0.010433 
1342.455936  	0.009531 
1344.384752  	0.009308 
1346.313568  	0.009317 
1348.242384  	0.009529 
1350.171200  	0.009972 
1352.100016  	0.010456 
1354.028832  	0.011186 
1355.957648  	0.011723 
1357.886464  	0.011994 
1359.815280  	0.012687 
1361.744096  	0.013921 
1363.672912  	0.013974 
1365.601728  	0.012778 
1367.530544  	0.012063 
1369.459360  	0.011053 
1371.388176  	0.009748 
1373.316992  	0.008939 
1375.245808  	0.006993 
1377.174624  	0.004443 
1379.103440  	0.002614 
1381.032256  	0.001168 
1382.961072  	0.000537 
1384.889888  	0.000906 
1386.818704  	0.002341 
1388.747520  	0.002572 
1390.676336  	0.000771 
1392.605152  	-0.002311 
1394.533968  	-0.002295 
1396.462784  	0.001558 
1398.391600  	0.002748 
1400.320416  	0.001670 
1402.249232  	-0.000066 
1404.178048  	-0.000191 
1406.106864  	-0.000154 
1408.035680  	0.000145 
1409.964496  	0.001442 
1411.893312  	0.003208 
1413.822128  	0.004892 
1415.750944  	0.007254 
1417.679760  	0.010056 
1419.608576  	0.011855 
1421.537392  	0.010980 
1423.466208  	0.010897 
1425.395024  	0.010337 
1427.323840  	0.009745 
1429.252656  	0.010114 
1431.181472  	0.009998 
1433.110288  	0.009432 
1435.039104  	0.010084 
1436.967920  	0.011322 
1438.896736  	0.010286 
1440.825552  	0.009531 
1442.754368  	0.009550 
1444.683184  	0.009538 
1446.612000  	0.010068 
1448.540816  	0.009876 
1450.469632  	0.009146 
1452.398448  	0.009450 
1454.327264  	0.010608 
1456.256080  	0.013999 
1458.184896  	0.015828 
1460.113712  	0.013391 
1462.042528  	0.012459 
1463.971344  	0.013974 
1465.900160  	0.015306 
1467.828976  	0.015444 
1469.757792  	0.016864 
1471.686608  	0.020178 
1473.615424  	0.022844 
1475.544240  	0.023138 
1477.473056  	0.023216 
1479.401872  	0.023300 
1481.330688  	0.024125 
1483.259504  	0.024169 
1485.188320  	0.024680 
1487.117136  	0.025921 
1489.045952  	0.027115 
1490.974768  	0.025966 
1492.903584  	0.023376 
1494.832400  	0.022645 
1496.761216  	0.022715 
1498.690032  	0.020997 
1500.618848  	0.018968 
1502.547664  	0.017541 
1504.476480  	0.018064 
1506.405296  	0.021810 
1508.334112  	0.020872 
1510.262928  	0.017305 
1512.191744  	0.015666 
1514.120560  	0.015304 
1516.049376  	0.016854 
1517.978192  	0.017739 
1519.907008  	0.018453 
1521.835824  	0.020831 
1523.764640  	0.020285 
1525.693456  	0.020675 
1527.622272  	0.021032 
1529.551088  	0.020398 
1531.479904  	0.020593 
1533.408720  	0.021751 
1535.337536  	0.020019 
1537.266352  	0.019240 
1539.195168  	0.021778 
1541.123984  	0.021941 
1543.052800  	0.019329 
1544.981616  	0.017201 
1546.910432  	0.014881 
1548.839248  	0.014644 
1550.768064  	0.014925 
1552.696880  	0.014654 
1554.625696  	0.015939 
1556.554512  	0.017349 
1558.483328  	0.022289 
1560.412144  	0.021319 
1562.340960  	0.018171 
1564.269776  	0.018603 
1566.198592  	0.019890 
1568.127408  	0.021625 
1570.056224  	0.024292 
1571.985040  	0.024362 
1573.913856  	0.025372 
1575.842672  	0.027797 
1577.771488  	0.027979 
1579.700304  	0.026351 
1581.629120  	0.025901 
1583.557936  	0.025741 
1585.486752  	0.026116 
1587.415568  	0.026854 
1589.344384  	0.028290 
1591.273200  	0.030000 
1593.202016  	0.032257 
1595.130832  	0.034367 
1597.059648  	0.036191 
1598.988464  	0.037692 
1600.917280  	0.039257 
1602.846096  	0.040266 
1604.774912  	0.040773 
1606.703728  	0.040886 
1608.632544  	0.040988 
1610.561360  	0.040382 
1612.490176  	0.039916 
1614.418992  	0.040152 
1616.347808  	0.041939 
1618.276624  	0.041877 
1620.205440  	0.041856 
1622.134256  	0.043901 
1624.063072  	0.046742 
1625.991888  	0.048129 
1627.920704  	0.050913 
1629.849520  	0.053306 
1631.778336  	0.055814 
1633.707152  	0.059485 
1635.635968  	0.065709 
1637.564784  	0.068019 
1639.493600  	0.068491 
1641.422416  	0.069946 
1643.351232  	0.071969 
1645.280048  	0.075100 
1647.208864  	0.078746 
1649.137680  	0.077578 
1651.066496  	0.077424 
1652.995312  	0.080957 
1654.924128  	0.078840 
1656.852944  	0.075254 
1658.781760  	0.073927 
1660.710576  	0.073695 
1662.639392  	0.074084 
1664.568208  	0.072591 
1666.497024  	0.071559 
1668.425840  	0.072185 
1670.354656  	0.072301 
1672.283472  	0.070651 
1674.212288  	0.070381 
1676.141104  	0.070193 
1678.069920  	0.069274 
1679.998736  	0.069969 
1681.927552  	0.071570 
1683.856368  	0.074616 
1685.785184  	0.073635 
1687.714000  	0.071854 
1689.642816  	0.071678 
1691.571632  	0.070753 
1693.500448  	0.070659 
1695.429264  	0.072102 
1697.358080  	0.071734 
1699.286896  	0.071217 
1701.215712  	0.069610 
1703.144528  	0.066159 
1705.073344  	0.064671 
1707.002160  	0.062019 
1708.930976  	0.058782 
1710.859792  	0.056006 
1712.788608  	0.053675 
1714.717424  	0.052007 
1716.646240  	0.050022 
1718.575056  	0.045539 
1720.503872  	0.039401 
1722.432688  	0.035427 
1724.361504  	0.031856 
1726.290320  	0.028533 
1728.219136  	0.026140 
1730.147952  	0.024576 
1732.076768  	0.023082 
1734.005584  	0.022487 
1735.934400  	0.018573 
1737.863216  	0.016438 
1739.792032  	0.015808 
1741.720848  	0.014374 
1743.649664  	0.013183 
1745.578480  	0.012130 
1747.507296  	0.011793 
1749.436112  	0.011730 
1751.364928  	0.010657 
1753.293744  	0.008680 
1755.222560  	0.007855 
1757.151376  	0.008305 
1759.080192  	0.007469 
1761.009008  	0.007602 
1762.937824  	0.007236 
1764.866640  	0.006300 
1766.795456  	0.006616 
1768.724272  	0.007123 
1770.653088  	0.007366 
1772.581904  	0.008272 
1774.510720  	0.006916 
1776.439536  	0.005929 
1778.368352  	0.005634 
1780.297168  	0.006031 
1782.225984  	0.005505 
1784.154800  	0.005348 
1786.083616  	0.005206 
1788.012432  	0.004989 
1789.941248  	0.005557 
1791.870064  	0.006763 
1793.798880  	0.006148 
1795.727696  	0.005346 
1797.656512  	0.005182 
1799.585328  	0.005550 
1801.514144  	0.005426 
1803.442960  	0.004750 
1805.371776  	0.004306 
1807.300592  	0.004351 
1809.229408  	0.004511 
1811.158224  	0.004753 
1813.087040  	0.004197 
1815.015856  	0.003676 
1816.944672  	0.003729 
1818.873488  	0.004018 
1820.802304  	0.004076 
1822.731120  	0.004378 
1824.659936  	0.004964 
1826.588752  	0.004877 
1828.517568  	0.004962 
1830.446384  	0.005269 
1832.375200  	0.004134 
1834.304016  	0.003798 
1836.232832  	0.004007 
1838.161648  	0.004152 
1840.090464  	0.003806 
1842.019280  	0.004153 
1843.948096  	0.005113 
1845.876912  	0.004948 
1847.805728  	0.004254 
1849.734544  	0.003783 
1851.663360  	0.003361 
1853.592176  	0.003830 
1855.520992  	0.003614 
1857.449808  	0.003344 
1859.378624  	0.003182 
1861.307440  	0.003331 
1863.236256  	0.003364 
1865.165072  	0.003715 
1867.093888  	0.004296 
1869.022704  	0.004832 
1870.951520  	0.004030 
1872.880336  	0.003381 
1874.809152  	0.003111 
1876.737968  	0.003359 
1878.666784  	0.003245 
1880.595600  	0.003211 
1882.524416  	0.003082 
1884.453232  	0.003375 
1886.382048  	0.003407 
1888.310864  	0.003686 
1890.239680  	0.003725 
1892.168496  	0.003498 
1894.097312  	0.003552 
1896.026128  	0.003666 
1897.954944  	0.003108 
1899.883760  	0.002781 
1901.812576  	0.002716 
1903.741392  	0.002686 
1905.670208  	0.002464 
1907.599024  	0.002815 
1909.527840  	0.003034 
1911.456656  	0.002948 
1913.385472  	0.002482 
1915.314288  	0.002596 
1917.243104  	0.003458 
1919.171920  	0.003511 
1921.100736  	0.002787 
1923.029552  	0.002980 
1924.958368  	0.002675 
1926.887184  	0.002503 
1928.816000  	0.002427 
1930.744816  	0.002761 
1932.673632  	0.002285 
1934.602448  	0.001828 
1936.531264  	0.001525 
1938.460080  	0.002027 
1940.388896  	0.002302 
1942.317712  	0.002605 
1944.246528  	0.003115 
1946.175344  	0.003269 
1948.104160  	0.002557 
1950.032976  	0.002291 
1951.961792  	0.002476 
1953.890608  	0.002333 
1955.819424  	0.001898 
1957.748240  	0.002454 
1959.677056  	0.002332 
1961.605872  	0.002441 
1963.534688  	0.002472 
1965.463504  	0.003165 
1967.392320  	0.002746 
1969.321136  	0.002526 
1971.249952  	0.002255 
1973.178768  	0.002681 
1975.107584  	0.003029 
1977.036400  	0.003663 
1978.965216  	0.003970 
1980.894032  	0.004480 
1982.822848  	0.003401 
1984.751664  	0.003104 
1986.680480  	0.003348 
1988.609296  	0.003205 
1990.538112  	0.003318 
1992.466928  	0.004496 
1994.395744  	0.004232 
1996.324560  	0.004114 
1998.253376  	0.003021 
2000.182192  	0.001889 
2002.111008  	0.002398 
2004.039824  	0.003033 
2005.968640  	0.002302 
2007.897456  	0.002578 
2009.826272  	0.002211 
2011.755088  	0.002446 
2013.683904  	0.002604 
2015.612720  	0.002893 
2017.541536  	0.002509 
2019.470352  	0.002576 
2021.399168  	0.002601 
2023.327984  	0.002734 
2025.256800  	0.003153 
2027.185616  	0.002828 
2029.114432  	0.002073 
2031.043248  	0.002959 
2032.972064  	0.003227 
2034.900880  	0.004042 
2036.829696  	0.003960 
2038.758512  	0.004285 
2040.687328  	0.005121 
2042.616144  	0.004926 
2044.544960  	0.004076 
2046.473776  	0.003470 
2048.402592  	0.003464 
2050.331408  	0.005260 
2052.260224  	0.004427 
2054.189040  	0.003273 
2056.117856  	0.002882 
2058.046672  	0.003047 
2059.975488  	0.003776 
2061.904304  	0.004050 
2063.833120  	0.003432 
2065.761936  	0.003379 
2067.690752  	0.003420 
2069.619568  	0.002998 
2071.548384  	0.002881 
2073.477200  	0.003521 
2075.406016  	0.003456 
2077.334832  	0.003230 
2079.263648  	0.002994 
2081.192464  	0.003036 
2083.121280  	0.003110 
2085.050096  	0.003454 
2086.978912  	0.003164 
2088.907728  	0.002852 
2090.836544  	0.002877 
2092.765360  	0.002597 
2094.694176  	0.002276 
2096.622992  	0.002257 
2098.551808  	0.002261 
2100.480624  	0.002338 
2102.409440  	0.002558 
2104.338256  	0.002594 
2106.267072  	0.002412 
2108.195888  	0.002608 
2110.124704  	0.002712 
2112.053520  	0.002613 
2113.982336  	0.002402 
2115.911152  	0.002516 
2117.839968  	0.002496 
2119.768784  	0.002518 
2121.697600  	0.001962 
2123.626416  	0.001751 
2125.555232  	0.001331 
2127.484048  	0.000831 
2129.412864  	0.000518 
2131.341680  	0.000271 
2133.270496  	0.000841 
2135.199312  	0.001756 
2137.128128  	0.001708 
2139.056944  	0.001930 
2140.985760  	0.001225 
2142.914576  	0.001079 
2144.843392  	0.001095 
2146.772208  	0.001013 
2148.701024  	0.000831 
2150.629840  	0.001117 
2152.558656  	0.000288 
2154.487472  	-0.000567 
2156.416288  	-0.000053 
2158.345104  	0.001591 
2160.273920  	0.003414 
2162.202736  	0.004259 
2164.131552  	0.002990 
2166.060368  	0.003255 
2167.989184  	0.003672 
2169.918000  	0.003495 
2171.846816  	0.002987 
2173.775632  	0.002812 
2175.704448  	0.003092 
2177.633264  	0.003079 
2179.562080  	0.002170 
2181.490896  	0.001978 
2183.419712  	0.001888 
2185.348528  	0.002915 
2187.277344  	0.003641 
2189.206160  	0.002686 
2191.134976  	0.001607 
2193.063792  	0.001872 
2194.992608  	0.002672 
2196.921424  	0.003086 
2198.850240  	0.003013 
2200.779056  	0.003054 
2202.707872  	0.003339 
2204.636688  	0.003745 
2206.565504  	0.003294 
2208.494320  	0.003381 
2210.423136  	0.003341 
2212.351952  	0.003321 
2214.280768  	0.003253 
2216.209584  	0.003175 
2218.138400  	0.003422 
2220.067216  	0.003633 
2221.996032  	0.003127 
2223.924848  	0.003286 
2225.853664  	0.003500 
2227.782480  	0.003382 
2229.711296  	0.003060 
2231.640112  	0.002919 
2233.568928  	0.003021 
2235.497744  	0.002811 
2237.426560  	0.002838 
2239.355376  	0.003174 
2241.284192  	0.002947 
2243.213008  	0.003059 
2245.141824  	0.003589 
2247.070640  	0.003598 
2248.999456  	0.003412 
2250.928272  	0.003160 
2252.857088  	0.002956 
2254.785904  	0.003057 
2256.714720  	0.003315 
2258.643536  	0.003451 
2260.572352  	0.002765 
2262.501168  	0.003121 
2264.429984  	0.003379 
2266.358800  	0.003201 
2268.287616  	0.003391 
2270.216432  	0.003710 
2272.145248  	0.003983 
2274.074064  	0.004008 
2276.002880  	0.003767 
2277.931696  	0.003704 
2279.860512  	0.003516 
2281.789328  	0.003743 
2283.718144  	0.004179 
2285.646960  	0.004507 
2287.575776  	0.004387 
2289.504592  	0.004001 
2291.433408  	0.003815 
2293.362224  	0.003751 
2295.291040  	0.003604 
2297.219856  	0.003583 
2299.148672  	0.003572 
2301.077488  	0.003584 
2303.006304  	0.003536 
2304.935120  	0.003606 
2306.863936  	0.003305 
2308.792752  	0.002947 
2310.721568  	0.002792 
2312.650384  	0.002900 
2314.579200  	0.002775 
2316.508016  	0.002249 
2318.436832  	0.001695 
2320.365648  	0.001755 
2322.294464  	0.002188 
2324.223280  	0.002189 
2326.152096  	0.001072 
2328.080912  	0.000333 
2330.009728  	0.000239 
2331.938544  	-0.000071 
2333.867360  	-0.000390 
2335.796176  	-0.000588 
2337.724992  	-0.000588 
2339.653808  	-0.000592 
2341.582624  	-0.000812 
2343.511440  	-0.000595 
2345.440256  	-0.000097 
2347.369072  	0.000881 
2349.297888  	0.000884 
2351.226704  	0.000090 
2353.155520  	-0.000727 
2355.084336  	-0.001469 
2357.013152  	-0.002347 
2358.941968  	-0.002658 
2360.870784  	-0.003285 
2362.799600  	-0.003449 
2364.728416  	-0.002855 
2366.657232  	-0.002190 
2368.586048  	-0.001288 
2370.514864  	-0.000281 
2372.443680  	0.000457 
2374.372496  	0.001095 
2376.301312  	0.001559 
2378.230128  	0.002039 
2380.158944  	0.002487 
2382.087760  	0.002921 
2384.016576  	0.003266 
2385.945392  	0.003508 
2387.874208  	0.003548 
2389.803024  	0.003467 
2391.731840  	0.003492 
2393.660656  	0.003515 
2395.589472  	0.003446 
2397.518288  	0.003441 
2399.447104  	0.003413 
2401.375920  	0.003333 
2403.304736  	0.003463 
2405.233552  	0.003480 
2407.162368  	0.003514 
2409.091184  	0.003512 
2411.020000  	0.003368 
2412.948816  	0.003375 
2414.877632  	0.003331 
2416.806448  	0.003389 
2418.735264  	0.003579 
2420.664080  	0.003674 
2422.592896  	0.003682 
2424.521712  	0.003918 
2426.450528  	0.003974 
2428.379344  	0.003661 
2430.308160  	0.003320 
2432.236976  	0.003484 
2434.165792  	0.003817 
2436.094608  	0.003811 
2438.023424  	0.003775 
2439.952240  	0.003758 
2441.881056  	0.003909 
2443.809872  	0.004230 
2445.738688  	0.004205 
2447.667504  	0.003875 
2449.596320  	0.004067 
2451.525136  	0.004152 
2453.453952  	0.004034 
2455.382768  	0.004104 
2457.311584  	0.004138 
2459.240400  	0.004147 
2461.169216  	0.003869 
2463.098032  	0.003894 
2465.026848  	0.003929 
2466.955664  	0.003971 
2468.884480  	0.004142 
2470.813296  	0.004273 
2472.742112  	0.004287 
2474.670928  	0.004365 
2476.599744  	0.004277 
2478.528560  	0.004042 
2480.457376  	0.004009 
2482.386192  	0.004188 
2484.315008  	0.004117 
2486.243824  	0.004051 
2488.172640  	0.004106 
2490.101456  	0.004073 
2492.030272  	0.003981 
2493.959088  	0.004011 
2495.887904  	0.004144 
2497.816720  	0.004228 
2499.745536  	0.004155 
2501.674352  	0.004381 
2503.603168  	0.004604 
2505.531984  	0.004663 
2507.460800  	0.004650 
2509.389616  	0.004547 
2511.318432  	0.004167 
2513.247248  	0.003972 
2515.176064  	0.004054 
2517.104880  	0.004403 
2519.033696  	0.004546 
2520.962512  	0.004528 
2522.891328  	0.004483 
2524.820144  	0.004350 
2526.748960  	0.004393 
2528.677776  	0.004587 
2530.606592  	0.004645 
2532.535408  	0.004538 
2534.464224  	0.004455 
2536.393040  	0.004504 
2538.321856  	0.004506 
2540.250672  	0.004595 
2542.179488  	0.004925 
2544.108304  	0.005011 
2546.037120  	0.004904 
2547.965936  	0.004778 
2549.894752  	0.004839 
2551.823568  	0.005052 
2553.752384  	0.005061 
2555.681200  	0.005116 
2557.610016  	0.005282 
2559.538832  	0.005471 
2561.467648  	0.005464 
2563.396464  	0.005456 
2565.325280  	0.005407 
2567.254096  	0.005353 
2569.182912  	0.005244 
2571.111728  	0.005302 
2573.040544  	0.005250 
2574.969360  	0.005242 
2576.898176  	0.005436 
2578.826992  	0.005607 
2580.755808  	0.005662 
2582.684624  	0.005560 
2584.613440  	0.005671 
2586.542256  	0.005948 
2588.471072  	0.006077 
2590.399888  	0.006050 
2592.328704  	0.005946 
2594.257520  	0.005922 
2596.186336  	0.006045 
2598.115152  	0.006109 
2600.043968  	0.006025 
2601.972784  	0.006083 
2603.901600  	0.006173 
2605.830416  	0.006327 
2607.759232  	0.006444 
2609.688048  	0.006449 
2611.616864  	0.006605 
2613.545680  	0.006650 
2615.474496  	0.006461 
2617.403312  	0.006418 
2619.332128  	0.006420 
2621.260944  	0.006538 
2623.189760  	0.006687 
2625.118576  	0.006842 
2627.047392  	0.006843 
2628.976208  	0.006701 
2630.905024  	0.006789 
2632.833840  	0.007032 
2634.762656  	0.007101 
2636.691472  	0.007215 
2638.620288  	0.007107 
2640.549104  	0.007073 
2642.477920  	0.007121 
2644.406736  	0.007260 
2646.335552  	0.007371 
2648.264368  	0.007422 
2650.193184  	0.007387 
2652.122000  	0.007379 
2654.050816  	0.007452 
2655.979632  	0.007551 
2657.908448  	0.007638 
2659.837264  	0.007566 
2661.766080  	0.007444 
2663.694896  	0.007310 
2665.623712  	0.007202 
2667.552528  	0.007333 
2669.481344  	0.007435 
2671.410160  	0.007396 
2673.338976  	0.007395 
2675.267792  	0.007505 
2677.196608  	0.007525 
2679.125424  	0.007470 
2681.054240  	0.007451 
2682.983056  	0.007426 
2684.911872  	0.007401 
2686.840688  	0.007451 
2688.769504  	0.007513 
2690.698320  	0.007603 
2692.627136  	0.007659 
2694.555952  	0.007659 
2696.484768  	0.007603 
2698.413584  	0.007576 
2700.342400  	0.007614 
2702.271216  	0.007631 
2704.200032  	0.007656 
2706.128848  	0.007734 
2708.057664  	0.007664 
2709.986480  	0.007567 
2711.915296  	0.007612 
2713.844112  	0.007698 
2715.772928  	0.007771 
2717.701744  	0.007789 
2719.630560  	0.007812 
2721.559376  	0.007774 
2723.488192  	0.007763 
2725.417008  	0.007756 
2727.345824  	0.007697 
2729.274640  	0.007748 
2731.203456  	0.007811 
2733.132272  	0.007716 
2735.061088  	0.007667 
2736.989904  	0.007660 
2738.918720  	0.007741 
2740.847536  	0.007794 
2742.776352  	0.007736 
2744.705168  	0.007727 
2746.633984  	0.007809 
2748.562800  	0.007777 
2750.491616  	0.007865 
2752.420432  	0.008011 
2754.349248  	0.007955 
2756.278064  	0.007859 
2758.206880  	0.007929 
2760.135696  	0.007911 
2762.064512  	0.007895 
2763.993328  	0.007951 
2765.922144  	0.007967 
2767.850960  	0.007912 
2769.779776  	0.007954 
2771.708592  	0.008010 
2773.637408  	0.008010 
2775.566224  	0.007968 
2777.495040  	0.007934 
2779.423856  	0.007983 
2781.352672  	0.008004 
2783.281488  	0.008011 
2785.210304  	0.007937 
2787.139120  	0.007909 
2789.067936  	0.007843 
2790.996752  	0.007710 
2792.925568  	0.007608 
2794.854384  	0.007617 
2796.783200  	0.007615 
2798.712016  	0.007446 
2800.640832  	0.007315 
2802.569648  	0.007340 
2804.498464  	0.007305 
2806.427280  	0.007263 
2808.356096  	0.007248 
2810.284912  	0.007159 
2812.213728  	0.007158 
2814.142544  	0.007241 
2816.071360  	0.007102 
2818.000176  	0.006767 
2819.928992  	0.006526 
2821.857808  	0.006501 
2823.786624  	0.006386 
2825.715440  	0.006255 
2827.644256  	0.006041 
2829.573072  	0.005726 
2831.501888  	0.005469 
2833.430704  	0.005269 
2835.359520  	0.005010 
2837.288336  	0.004623 
2839.217152  	0.004265 
2841.145968  	0.003904 
2843.074784  	0.003687 
2845.003600  	0.003661 
2846.932416  	0.003568 
2848.861232  	0.003454 
2850.790048  	0.003142 
2852.718864  	0.002257 
2854.647680  	0.000993 
2856.576496  	-0.000389 
2858.505312  	-0.001635 
2860.434128  	-0.002852 
2862.362944  	-0.003922 
2864.291760  	-0.005016 
2866.220576  	-0.006171 
2868.149392  	-0.007127 
2870.078208  	-0.007835 
2872.007024  	-0.008343 
2873.935840  	-0.008751 
2875.864656  	-0.009222 
2877.793472  	-0.009866 
2879.722288  	-0.010630 
2881.651104  	-0.011506 
2883.579920  	-0.012280 
2885.508736  	-0.012439 
2887.437552  	-0.012172 
2889.366368  	-0.012170 
2891.295184  	-0.012608 
2893.224000  	-0.012911 
2895.152816  	-0.012940 
2897.081632  	-0.013225 
2899.010448  	-0.014849 
2900.939264  	-0.016436 
2902.868080  	-0.014955 
2904.796896  	-0.013271 
2906.725712  	-0.012371 
2908.654528  	-0.011653 
2910.583344  	-0.011262 
2912.512160  	-0.010280 
2914.440976  	-0.008603 
2916.369792  	-0.007377 
2918.298608  	-0.006964 
2920.227424  	-0.006977 
2922.156240  	-0.007080 
2924.085056  	-0.006947 
2926.013872  	-0.006651 
2927.942688  	-0.006448 
2929.871504  	-0.006130 
2931.800320  	-0.005574 
2933.729136  	-0.005217 
2935.657952  	-0.005180 
2937.586768  	-0.004972 
2939.515584  	-0.004774 
2941.444400  	-0.004888 
2943.373216  	-0.004971 
2945.302032  	-0.004745 
2947.230848  	-0.004651 
2949.159664  	-0.005098 
2951.088480  	-0.005871 
2953.017296  	-0.006654 
2954.946112  	-0.007473 
2956.874928  	-0.008504 
2958.803744  	-0.009733 
2960.732560  	-0.011067 
2962.661376  	-0.012640 
2964.590192  	-0.014708 
2966.519008  	-0.017207 
2968.447824  	-0.019562 
2970.376640  	-0.021281 
2972.305456  	-0.022174 
2974.234272  	-0.022041 
2976.163088  	-0.021490 
2978.091904  	-0.020600 
2980.020720  	-0.019555 
2981.949536  	-0.018287 
2983.878352  	-0.017483 
2985.807168  	-0.017565 
2987.735984  	-0.017715 
2989.664800  	-0.016485 
2991.593616  	-0.012513 
2993.522432  	-0.010009 
2995.451248  	-0.009115 
2997.380064  	-0.008040 
2999.308880  	-0.006473 
3001.237696  	-0.004926 
3003.166512  	-0.003491 
3005.095328  	-0.001996 
3007.024144  	-0.000396 
3008.952960  	0.001341 
3010.881776  	0.002957 
3012.810592  	0.004411 
3014.739408  	0.005614 
3016.668224  	0.006792 
3018.597040  	0.008034 
3020.525856  	0.009212 
3022.454672  	0.010358 
3024.383488  	0.011378 
3026.312304  	0.012199 
3028.241120  	0.012902 
3030.169936  	0.013763 
3032.098752  	0.014549 
3034.027568  	0.015094 
3035.956384  	0.015634 
3037.885200  	0.016230 
3039.814016  	0.016749 
3041.742832  	0.017140 
3043.671648  	0.017437 
3045.600464  	0.017675 
3047.529280  	0.018000 
3049.458096  	0.018415 
3051.386912  	0.018570 
3053.315728  	0.018610 
3055.244544  	0.018933 
3057.173360  	0.019313 
3059.102176  	0.019408 
3061.030992  	0.019449 
3062.959808  	0.019803 
3064.888624  	0.020164 
3066.817440  	0.020377 
3068.746256  	0.020544 
3070.675072  	0.020630 
3072.603888  	0.020730 
3074.532704  	0.020872 
3076.461520  	0.021128 
3078.390336  	0.021366 
3080.319152  	0.021458 
3082.247968  	0.021752 
3084.176784  	0.021972 
3086.105600  	0.022049 
3088.034416  	0.022199 
3089.963232  	0.022290 
3091.892048  	0.022371 
3093.820864  	0.022421 
3095.749680  	0.022841 
3097.678496  	0.023090 
3099.607312  	0.023228 
3101.536128  	0.023514 
3103.464944  	0.023768 
3105.393760  	0.023961 
3107.322576  	0.024132 
3109.251392  	0.024207 
3111.180208  	0.024264 
3113.109024  	0.024404 
3115.037840  	0.024731 
3116.966656  	0.024885 
3118.895472  	0.024973 
3120.824288  	0.024952 
3122.753104  	0.025012 
3124.681920  	0.025248 
3126.610736  	0.025446 
3128.539552  	0.025442 
3130.468368  	0.025516 
3132.397184  	0.025598 
3134.326000  	0.025625 
3136.254816  	0.025693 
3138.183632  	0.025713 
3140.112448  	0.025814 
3142.041264  	0.026085 
3143.970080  	0.026159 
3145.898896  	0.026272 
3147.827712  	0.026363 
3149.756528  	0.026340 
3151.685344  	0.026480 
3153.614160  	0.026587 
3155.542976  	0.026633 
3157.471792  	0.026775 
3159.400608  	0.027051 
3161.329424  	0.027233 
3163.258240  	0.027161 
3165.187056  	0.027244 
3167.115872  	0.027443 
3169.044688  	0.027589 
3170.973504  	0.027529 
3172.902320  	0.027590 
3174.831136  	0.027665 
3176.759952  	0.027711 
3178.688768  	0.027713 
3180.617584  	0.027858 
3182.546400  	0.027946 
3184.475216  	0.027900 
3186.404032  	0.027898 
3188.332848  	0.027866 
3190.261664  	0.027846 
3192.190480  	0.027636 
3194.119296  	0.027583 
3196.048112  	0.027738 
3197.976928  	0.027853 
3199.905744  	0.027688 
3201.834560  	0.027406 
3203.763376  	0.027223 
3205.692192  	0.027156 
3207.621008  	0.027095 
3209.549824  	0.027076 
3211.478640  	0.027106 
3213.407456  	0.026859 
3215.336272  	0.026783 
3217.265088  	0.026612 
3219.193904  	0.026377 
3221.122720  	0.026175 
3223.051536  	0.025966 
3224.980352  	0.025658 
3226.909168  	0.025453 
3228.837984  	0.025355 
3230.766800  	0.025066 
3232.695616  	0.024863 
3234.624432  	0.024802 
3236.553248  	0.024795 
3238.482064  	0.024876 
3240.410880  	0.024793 
3242.339696  	0.024539 
3244.268512  	0.024475 
3246.197328  	0.024485 
3248.126144  	0.024330 
3250.054960  	0.024215 
3251.983776  	0.024148 
3253.912592  	0.024399 
3255.841408  	0.024484 
3257.770224  	0.024286 
3259.699040  	0.024372 
3261.627856  	0.024565 
3263.556672  	0.024509 
3265.485488  	0.024501 
3267.414304  	0.024486 
3269.343120  	0.024581 
3271.271936  	0.024582 
3273.200752  	0.024656 
3275.129568  	0.024887 
3277.058384  	0.024952 
3278.987200  	0.024683 
3280.916016  	0.024682 
3282.844832  	0.024902 
3284.773648  	0.024975 
3286.702464  	0.025004 
3288.631280  	0.025164 
3290.560096  	0.025259 
3292.488912  	0.025361 
3294.417728  	0.025406 
3296.346544  	0.025466 
3298.275360  	0.025579 
3300.204176  	0.025628 
3302.132992  	0.025644 
3304.061808  	0.025887 
3305.990624  	0.026177 
3307.919440  	0.026503 
3309.848256  	0.026771 
3311.777072  	0.026847 
3313.705888  	0.026956 
3315.634704  	0.027102 
3317.563520  	0.027315 
3319.492336  	0.027532 
3321.421152  	0.027561 
3323.349968  	0.027558 
3325.278784  	0.027794 
3327.207600  	0.027850 
3329.136416  	0.027962 
3331.065232  	0.028302 
3332.994048  	0.028345 
3334.922864  	0.028347 
3336.851680  	0.028427 
3338.780496  	0.028608 
3340.709312  	0.028663 
3342.638128  	0.028694 
3344.566944  	0.028580 
3346.495760  	0.028435 
3348.424576  	0.028336 
3350.353392  	0.028189 
3352.282208  	0.028146 
3354.211024  	0.028176 
3356.139840  	0.028156 
3358.068656  	0.028144 
3359.997472  	0.028100 
3361.926288  	0.028121 
3363.855104  	0.028121 
3365.783920  	0.028047 
3367.712736  	0.027955 
3369.641552  	0.027722 
3371.570368  	0.027567 
3373.499184  	0.027322 
3375.428000  	0.027118 
3377.356816  	0.027035 
3379.285632  	0.026964 
3381.214448  	0.027053 
3383.143264  	0.027177 
3385.072080  	0.027105 
3387.000896  	0.026830 
3388.929712  	0.026501 
3390.858528  	0.026553 
3392.787344  	0.026882 
3394.716160  	0.026769 
3396.644976  	0.026521 
3398.573792  	0.026280 
3400.502608  	0.026067 
3402.431424  	0.026019 
3404.360240  	0.025922 
3406.289056  	0.025854 
3408.217872  	0.025968 
3410.146688  	0.025905 
3412.075504  	0.025527 
3414.004320  	0.025295 
3415.933136  	0.025377 
3417.861952  	0.025500 
3419.790768  	0.025747 
3421.719584  	0.025799 
3423.648400  	0.025554 
3425.577216  	0.025339 
3427.506032  	0.025069 
3429.434848  	0.024883 
3431.363664  	0.024967 
3433.292480  	0.024880 
3435.221296  	0.024738 
3437.150112  	0.024696 
3439.078928  	0.024612 
3441.007744  	0.024704 
3442.936560  	0.024648 
3444.865376  	0.024525 
3446.794192  	0.024937 
3448.723008  	0.024603 
3450.651824  	0.023983 
3452.580640  	0.023967 
3454.509456  	0.023844 
3456.438272  	0.023718 
3458.367088  	0.023652 
3460.295904  	0.023336 
3462.224720  	0.023165 
3464.153536  	0.022901 
3466.082352  	0.022706 
3468.011168  	0.022444 
3469.939984  	0.022135 
3471.868800  	0.022018 
3473.797616  	0.021910 
3475.726432  	0.021667 
3477.655248  	0.021451 
3479.584064  	0.021337 
3481.512880  	0.021280 
3483.441696  	0.020900 
3485.370512  	0.020514 
3487.299328  	0.020381 
3489.228144  	0.020066 
3491.156960  	0.019670 
3493.085776  	0.019515 
3495.014592  	0.019564 
3496.943408  	0.019526 
3498.872224  	0.019104 
3500.801040  	0.018780 
3502.729856  	0.019248 
3504.658672  	0.019099 
3506.587488  	0.018126 
3508.516304  	0.017973 
3510.445120  	0.017905 
3512.373936  	0.017540 
3514.302752  	0.017489 
3516.231568  	0.017404 
3518.160384  	0.017331 
3520.089200  	0.017359 
3522.018016  	0.017317 
3523.946832  	0.017168 
3525.875648  	0.017005 
3527.804464  	0.017083 
3529.733280  	0.016703 
3531.662096  	0.016172 
3533.590912  	0.015861 
3535.519728  	0.016091 
3537.448544  	0.015918 
3539.377360  	0.015399 
3541.306176  	0.015367 
3543.234992  	0.015625 
3545.163808  	0.016114 
3547.092624  	0.016208 
3549.021440  	0.015538 
3550.950256  	0.015304 
3552.879072  	0.015136 
3554.807888  	0.014476 
3556.736704  	0.014142 
3558.665520  	0.014093 
3560.594336  	0.014229 
3562.523152  	0.014212 
3564.451968  	0.014717 
3566.380784  	0.016027 
3568.309600  	0.015835 
3570.238416  	0.013925 
3572.167232  	0.012821 
3574.096048  	0.012637 
3576.024864  	0.012537 
3577.953680  	0.012330 
3579.882496  	0.012112 
3581.811312  	0.011979 
3583.740128  	0.011907 
3585.668944  	0.012613 
3587.597760  	0.013662 
3589.526576  	0.012606 
3591.455392  	0.011411 
3593.384208  	0.011605 
3595.313024  	0.011367 
3597.241840  	0.010520 
3599.170656  	0.010201 
3601.099472  	0.010182 
3603.028288  	0.009410 
3604.957104  	0.009146 
3606.885920  	0.009692 
3608.814736  	0.009973 
3610.743552  	0.009399 
3612.672368  	0.009459 
3614.601184  	0.009325 
3616.530000  	0.008606 
3618.458816  	0.008645 
3620.387632  	0.008175 
3622.316448  	0.006421 
3624.245264  	0.005541 
3626.174080  	0.005752 
3628.102896  	0.006903 
3630.031712  	0.007208 
3631.960528  	0.005061 
3633.889344  	0.004083 
3635.818160  	0.003325 
3637.746976  	0.002708 
3639.675792  	0.002116 
3641.604608  	0.001455 
3643.533424  	0.000965 
3645.462240  	0.000828 
3647.391056  	0.002337 
3649.319872  	0.003265 
3651.248688  	0.001855 
3653.177504  	-0.001025 
3655.106320  	-0.002026 
3657.035136  	-0.002258 
3658.963952  	-0.003736 
3660.892768  	-0.004689 
3662.821584  	-0.005127 
3664.750400  	-0.005207 
3666.679216  	-0.004975 
3668.608032  	-0.003264 
3670.536848  	-0.001935 
3672.465664  	-0.003342 
3674.394480  	-0.003283 
3676.323296  	-0.002096 
3678.252112  	-0.002698 
3680.180928  	-0.003265 
3682.109744  	-0.004483 
3684.038560  	-0.005062 
3685.967376  	-0.004613 
3687.896192  	-0.003142 
3689.825008  	-0.001637 
3691.753824  	-0.002029 
3693.682640  	-0.003226 
3695.611456  	-0.003639 
3697.540272  	-0.003177 
3699.469088  	-0.002616 
3701.397904  	-0.001356 
3703.326720  	-0.000581 
3705.255536  	-0.000576 
3707.184352  	-0.000032 
3709.113168  	0.001339 
3711.041984  	0.003013 
3712.970800  	0.003309 
3714.899616  	0.001797 
3716.828432  	0.000786 
3718.757248  	0.001145 
3720.686064  	0.001621 
3722.614880  	0.002060 
3724.543696  	0.002161 
3726.472512  	0.002265 
3728.401328  	0.001545 
3730.330144  	0.001328 
3732.258960  	0.003022 
3734.187776  	0.004828 
3736.116592  	0.005416 
3738.045408  	0.003872 
3739.974224  	0.002749 
3741.903040  	0.002626 
3743.831856  	0.004024 
3745.760672  	0.004898 
3747.689488  	0.003720 
3749.618304  	0.004802 
3751.547120  	0.005396 
3753.475936  	0.003868 
3755.404752  	0.002324 
3757.333568  	0.002384 
3759.262384  	0.002817 
3761.191200  	0.002365 
3763.120016  	0.001593 
3765.048832  	0.002200 
3766.977648  	0.002359 
3768.906464  	0.002510 
3770.835280  	0.002584 
3772.764096  	0.001258 
3774.692912  	0.000720 
3776.621728  	0.000784 
3778.550544  	0.001679 
3780.479360  	0.002273 
3782.408176  	0.001565 
3784.336992  	0.001535 
3786.265808  	0.001365 
3788.194624  	0.000869 
3790.123440  	0.000567 
3792.052256  	0.000692 
3793.981072  	0.000980 
3795.909888  	0.002183 
3797.838704  	0.002639 
3799.767520  	0.002477 
3801.696336  	0.004015 
3803.625152  	0.003039 
3805.553968  	0.001933 
3807.482784  	0.002628 
3809.411600  	0.001834 
3811.340416  	0.001085 
3813.269232  	0.000990 
3815.198048  	0.002121 
3817.126864  	0.003320 
3819.055680  	0.003140 
3820.984496  	0.004204 
3822.913312  	0.003388 
3824.842128  	0.001974 
3826.770944  	0.002180 
3828.699760  	0.001714 
3830.628576  	0.001516 
3832.557392  	0.001898 
3834.486208  	0.001993 
3836.415024  	0.002767 
3838.343840  	0.003835 
3840.272656  	0.003918 
3842.201472  	0.003000 
3844.130288  	0.002312 
3846.059104  	0.001453 
3847.987920  	0.001056 
3849.916736  	0.001653 
3851.845552  	0.003294 
3853.774368  	0.005705 
3855.703184  	0.004262 
3857.632000  	0.002317 
3859.560816  	0.001513 
3861.489632  	0.002004 
3863.418448  	0.002723 
3865.347264  	0.002971 
3867.276080  	0.002146 
3869.204896  	0.002820 
3871.133712  	0.003553 
3873.062528  	0.002644 
3874.991344  	0.002496 
3876.920160  	0.001457 
3878.848976  	0.001785 
3880.777792  	0.002904 
3882.706608  	0.002355 
3884.635424  	0.002232 
3886.564240  	0.002536 
3888.493056  	0.001361 
3890.421872  	0.001793 
3892.350688  	0.002514 
3894.279504  	0.001567 
3896.208320  	0.001009 
3898.137136  	0.001749 
3900.065952  	0.002907 
3901.994768  	0.003270 
3903.923584  	0.003531 
3905.852400  	0.002776 
3907.781216  	0.001353 
3909.710032  	0.000659 
3911.638848  	0.000614 
3913.567664  	0.000758 
3915.496480  	0.001207 
3917.425296  	0.001897 
3919.354112  	0.001857 
3921.282928  	0.001559 
3923.211744  	0.001567 
3925.140560  	0.001930 
3927.069376  	0.001590 
3928.998192  	0.001467 
3930.927008  	0.001750 
3932.855824  	0.001857 
3934.784640  	0.001426 
3936.713456  	0.001082 
3938.642272  	0.000865 
3940.571088  	0.001089 
3942.499904  	0.001868 
3944.428720  	0.001631 
3946.357536  	0.001266 
3948.286352  	0.001605 
3950.215168  	0.001680 
3952.143984  	0.001324 
3954.072800  	0.001077 
3956.001616  	0.001122 
3957.930432  	0.001241 
3959.859248  	0.001074 
3961.788064  	0.001046 
3963.716880  	0.000885 
3965.645696  	0.000765 
3967.574512  	0.001010 
3969.503328  	0.001074 
3971.432144  	0.000952 
3973.360960  	0.001121 
3975.289776  	0.001263 
3977.218592  	0.000975 
3979.147408  	0.000816 
3981.076224  	0.000812 
3983.005040  	0.000762 
3984.933856  	0.000812 
3986.862672  	0.000756 
3988.791488  	0.000720 
3990.720304  	0.000731 
3992.649120  	0.000650 
3994.577936  	0.000860 
3996.506752  	0.000892 
3998.435568  	0.000690 
4000.364384  	0.000683 