##TITLE=No Description
##DATA TYPE=INFRARED SPECTRUM
##XUNITS=1/CM
##YUNITS=Abs
399.264912  	0.236420 
401.193728  	0.223879 
403.122544  	0.219948 
405.051360  	0.215643 
406.980176  	0.213574 
408.908992  	0.213378 
410.837808  	0.217594 
412.766624  	0.213831 
414.695440  	0.209425 
416.624256  	0.209294 
418.553072  	0.216942 
420.481888  	0.218136 
422.410704  	0.213321 
424.339520  	0.207941 
426.268336  	0.205292 
428.197152  	0.203579 
430.125968  	0.205267 
432.054784  	0.200812 
433.983600  	0.199539 
435.912416  	0.198103 
437.841232  	0.197278 
439.770048  	0.196901 
441.698864  	0.197043 
443.627680  	0.196211 
445.556496  	0.195516 
447.485312  	0.194557 
449.414128  	0.194885 
451.342944  	0.193839 
453.271760  	0.194047 
455.200576  	0.196057 
457.129392  	0.201398 
459.058208  	0.200722 
460.987024  	0.199221 
462.915840  	0.197716 
464.844656  	0.196248 
466.773472  	0.198359 
468.702288  	0.201209 
470.631104  	0.199666 
472.559920  	0.200833 
474.488736  	0.196954 
476.417552  	0.196507 
478.346368  	0.197265 
480.275184  	0.199135 
482.204000  	0.200203 
484.132816  	0.201135 
486.061632  	0.199358 
487.990448  	0.198171 
489.919264  	0.199737 
491.848080  	0.202173 
493.776896  	0.203031 
495.705712  	0.204223 
497.634528  	0.204315 
499.563344  	0.203482 
501.492160  	0.204403 
503.420976  	0.204659 
505.349792  	0.204687 
507.278608  	0.207015 
509.207424  	0.206817 
511.136240  	0.208040 
513.065056  	0.209092 
514.993872  	0.212153 
516.922688  	0.213928 
518.851504  	0.214082 
520.780320  	0.213300 
522.709136  	0.214208 
524.637952  	0.215014 
526.566768  	0.216447 
528.495584  	0.214937 
530.424400  	0.214568 
532.353216  	0.214287 
534.282032  	0.213918 
536.210848  	0.212752 
538.139664  	0.211928 
540.068480  	0.211907 
541.997296  	0.211890 
543.926112  	0.211324 
545.854928  	0.211580 
547.783744  	0.210671 
549.712560  	0.209852 
551.641376  	0.208892 
553.570192  	0.208690 
555.499008  	0.208692 
557.427824  	0.208846 
559.356640  	0.208353 
561.285456  	0.207054 
563.214272  	0.205488 
565.143088  	0.205398 
567.071904  	0.205422 
569.000720  	0.205115 
570.929536  	0.203520 
572.858352  	0.202596 
574.787168  	0.201736 
576.715984  	0.201206 
578.644800  	0.200083 
580.573616  	0.199243 
582.502432  	0.197852 
584.431248  	0.196990 
586.360064  	0.195468 
588.288880  	0.195170 
590.217696  	0.195168 
592.146512  	0.195128 
594.075328  	0.193863 
596.004144  	0.193097 
597.932960  	0.192397 
599.861776  	0.192236 
601.790592  	0.191157 
603.719408  	0.190274 
605.648224  	0.190011 
607.577040  	0.190273 
609.505856  	0.189957 
611.434672  	0.189754 
613.363488  	0.189027 
615.292304  	0.188620 
617.221120  	0.188101 
619.149936  	0.188209 
621.078752  	0.187130 
623.007568  	0.186892 
624.936384  	0.187111 
626.865200  	0.186545 
628.794016  	0.185505 
630.722832  	0.185089 
632.651648  	0.185099 
634.580464  	0.185210 
636.509280  	0.184877 
638.438096  	0.185053 
640.366912  	0.184568 
642.295728  	0.184078 
644.224544  	0.184037 
646.153360  	0.183472 
648.082176  	0.182098 
650.010992  	0.180784 
651.939808  	0.179395 
653.868624  	0.178438 
655.797440  	0.177432 
657.726256  	0.176122 
659.655072  	0.174632 
661.583888  	0.173433 
663.512704  	0.172138 
665.441520  	0.170606 
667.370336  	0.166618 
669.299152  	0.164490 
671.227968  	0.165499 
673.156784  	0.164869 
675.085600  	0.163295 
677.014416  	0.162212 
678.943232  	0.161428 
680.872048  	0.160550 
682.800864  	0.159400 
684.729680  	0.158703 
686.658496  	0.158165 
688.587312  	0.157583 
690.516128  	0.156919 
692.444944  	0.156500 
694.373760  	0.155644 
696.302576  	0.155010 
698.231392  	0.153824 
700.160208  	0.152685 
702.089024  	0.151786 
704.017840  	0.151000 
705.946656  	0.149924 
707.875472  	0.148964 
709.804288  	0.147671 
711.733104  	0.146773 
713.661920  	0.145756 
715.590736  	0.144766 
717.519552  	0.144056 
719.448368  	0.143782 
721.377184  	0.143757 
723.306000  	0.143947 
725.234816  	0.143736 
727.163632  	0.143342 
729.092448  	0.142517 
731.021264  	0.141635 
732.950080  	0.140334 
734.878896  	0.138815 
736.807712  	0.137765 
738.736528  	0.136839 
740.665344  	0.135820 
742.594160  	0.135100 
744.522976  	0.134186 
746.451792  	0.133425 
748.380608  	0.133111 
750.309424  	0.132784 
752.238240  	0.131933 
754.167056  	0.131451 
756.095872  	0.131078 
758.024688  	0.130584 
759.953504  	0.129809 
761.882320  	0.129234 
763.811136  	0.128801 
765.739952  	0.128374 
767.668768  	0.127588 
769.597584  	0.126781 
771.526400  	0.126167 
773.455216  	0.126061 
775.384032  	0.126379 
777.312848  	0.127310 
779.241664  	0.128298 
781.170480  	0.128611 
783.099296  	0.127660 
785.028112  	0.125647 
786.956928  	0.123187 
788.885744  	0.121146 
790.814560  	0.119213 
792.743376  	0.117944 
794.672192  	0.117051 
796.601008  	0.116036 
798.529824  	0.114430 
800.458640  	0.112633 
802.387456  	0.110828 
804.316272  	0.109494 
806.245088  	0.108704 
808.173904  	0.108163 
810.102720  	0.107535 
812.031536  	0.106996 
813.960352  	0.106744 
815.889168  	0.106397 
817.817984  	0.105878 
819.746800  	0.105567 
821.675616  	0.104991 
823.604432  	0.104221 
825.533248  	0.103145 
827.462064  	0.102265 
829.390880  	0.101627 
831.319696  	0.100550 
833.248512  	0.099322 
835.177328  	0.098377 
837.106144  	0.097073 
839.034960  	0.095698 
840.963776  	0.094108 
842.892592  	0.092888 
844.821408  	0.091676 
846.750224  	0.090046 
848.679040  	0.088449 
850.607856  	0.087109 
852.536672  	0.086177 
854.465488  	0.085363 
856.394304  	0.083997 
858.323120  	0.082405 
860.251936  	0.080807 
862.180752  	0.078872 
864.109568  	0.077144 
866.038384  	0.075778 
867.967200  	0.074195 
869.896016  	0.072413 
871.824832  	0.070826 
873.753648  	0.069118 
875.682464  	0.066895 
877.611280  	0.063594 
879.540096  	0.061276 
881.468912  	0.062262 
883.397728  	0.063737 
885.326544  	0.065377 
887.255360  	0.066996 
889.184176  	0.067712 
891.112992  	0.067395 
893.041808  	0.067678 
894.970624  	0.067925 
896.899440  	0.067512 
898.828256  	0.066662 
900.757072  	0.065953 
902.685888  	0.065574 
904.614704  	0.065802 
906.543520  	0.066390 
908.472336  	0.067074 
910.401152  	0.068059 
912.329968  	0.069346 
914.258784  	0.070630 
916.187600  	0.071827 
918.116416  	0.072668 
920.045232  	0.073045 
921.974048  	0.073025 
923.902864  	0.072754 
925.831680  	0.072243 
927.760496  	0.071840 
929.689312  	0.071527 
931.618128  	0.071299 
933.546944  	0.071133 
935.475760  	0.070966 
937.404576  	0.070705 
939.333392  	0.070490 
941.262208  	0.070382 
943.191024  	0.070649 
945.119840  	0.071382 
947.048656  	0.072546 
948.977472  	0.074056 
950.906288  	0.075715 
952.835104  	0.077422 
954.763920  	0.079266 
956.692736  	0.080870 
958.621552  	0.082077 
960.550368  	0.082649 
962.479184  	0.082733 
964.408000  	0.081806 
966.336816  	0.080293 
968.265632  	0.077940 
970.194448  	0.074688 
972.123264  	0.071035 
974.052080  	0.067352 
975.980896  	0.063548 
977.909712  	0.059913 
979.838528  	0.056837 
981.767344  	0.054105 
983.696160  	0.051905 
985.624976  	0.050224 
987.553792  	0.049242 
989.482608  	0.048846 
991.411424  	0.048938 
993.340240  	0.049521 
995.269056  	0.050215 
997.197872  	0.051091 
999.126688  	0.051964 
1001.055504  	0.052917 
1002.984320  	0.053828 
1004.913136  	0.054468 
1006.841952  	0.054960 
1008.770768  	0.055347 
1010.699584  	0.055310 
1012.628400  	0.054929 
1014.557216  	0.054565 
1016.486032  	0.054281 
1018.414848  	0.053756 
1020.343664  	0.053116 
1022.272480  	0.052202 
1024.201296  	0.050503 
1026.130112  	0.046082 
1028.058928  	0.043069 
1029.987744  	0.044515 
1031.916560  	0.043369 
1033.845376  	0.039520 
1035.774192  	0.033728 
1037.703008  	0.028152 
1039.631824  	0.024997 
1041.560640  	0.022113 
1043.489456  	0.020011 
1045.418272  	0.019844 
1047.347088  	0.022318 
1049.275904  	0.027053 
1051.204720  	0.032879 
1053.133536  	0.039598 
1055.062352  	0.045830 
1056.991168  	0.050641 
1058.919984  	0.057270 
1060.848800  	0.063439 
1062.777616  	0.064561 
1064.706432  	0.060641 
1066.635248  	0.058121 
1068.564064  	0.061859 
1070.492880  	0.062477 
1072.421696  	0.058955 
1074.350512  	0.055894 
1076.279328  	0.053923 
1078.208144  	0.053050 
1080.136960  	0.053767 
1082.065776  	0.055421 
1083.994592  	0.057025 
1085.923408  	0.058465 
1087.852224  	0.059984 
1089.781040  	0.061915 
1091.709856  	0.064658 
1093.638672  	0.065944 
1095.567488  	0.065772 
1097.496304  	0.064879 
1099.425120  	0.063597 
1101.353936  	0.062156 
1103.282752  	0.060206 
1105.211568  	0.058068 
1107.140384  	0.056089 
1109.069200  	0.054060 
1110.998016  	0.052234 
1112.926832  	0.050089 
1114.855648  	0.047875 
1116.784464  	0.045849 
1118.713280  	0.043851 
1120.642096  	0.041584 
1122.570912  	0.039419 
1124.499728  	0.037404 
1126.428544  	0.035551 
1128.357360  	0.033706 
1130.286176  	0.031969 
1132.214992  	0.030500 
1134.143808  	0.029161 
1136.072624  	0.027771 
1138.001440  	0.026450 
1139.930256  	0.025281 
1141.859072  	0.024045 
1143.787888  	0.022751 
1145.716704  	0.021805 
1147.645520  	0.021012 
1149.574336  	0.020133 
1151.503152  	0.019283 
1153.431968  	0.018901 
1155.360784  	0.018595 
1157.289600  	0.018482 
1159.218416  	0.018594 
1161.147232  	0.018957 
1163.076048  	0.019216 
1165.004864  	0.019537 
1166.933680  	0.020002 
1168.862496  	0.020522 
1170.791312  	0.021011 
1172.720128  	0.021555 
1174.648944  	0.022201 
1176.577760  	0.022867 
1178.506576  	0.023390 
1180.435392  	0.024021 
1182.364208  	0.024654 
1184.293024  	0.025197 
1186.221840  	0.025745 
1188.150656  	0.026619 
1190.079472  	0.027693 
1192.008288  	0.028890 
1193.937104  	0.030359 
1195.865920  	0.032078 
1197.794736  	0.033853 
1199.723552  	0.036003 
1201.652368  	0.038112 
1203.581184  	0.040450 
1205.510000  	0.042833 
1207.438816  	0.045034 
1209.367632  	0.047228 
1211.296448  	0.049433 
1213.225264  	0.051253 
1215.154080  	0.052589 
1217.082896  	0.053735 
1219.011712  	0.054767 
1220.940528  	0.055379 
1222.869344  	0.056049 
1224.798160  	0.056778 
1226.726976  	0.057145 
1228.655792  	0.057603 
1230.584608  	0.058166 
1232.513424  	0.058797 
1234.442240  	0.059617 
1236.371056  	0.060114 
1238.299872  	0.059672 
1240.228688  	0.056797 
1242.157504  	0.054464 
1244.086320  	0.054000 
1246.015136  	0.051730 
1247.943952  	0.048171 
1249.872768  	0.044907 
1251.801584  	0.042847 
1253.730400  	0.040650 
1255.659216  	0.038381 
1257.588032  	0.036185 
1259.516848  	0.034288 
1261.445664  	0.032383 
1263.374480  	0.030716 
1265.303296  	0.029373 
1267.232112  	0.028429 
1269.160928  	0.027599 
1271.089744  	0.027025 
1273.018560  	0.026665 
1274.947376  	0.026481 
1276.876192  	0.026505 
1278.805008  	0.026582 
1280.733824  	0.026311 
1282.662640  	0.025672 
1284.591456  	0.024845 
1286.520272  	0.024044 
1288.449088  	0.023416 
1290.377904  	0.022800 
1292.306720  	0.022165 
1294.235536  	0.021375 
1296.164352  	0.020541 
1298.093168  	0.019307 
1300.021984  	0.017868 
1301.950800  	0.016503 
1303.879616  	0.015335 
1305.808432  	0.014235 
1307.737248  	0.013195 
1309.666064  	0.012193 
1311.594880  	0.011744 
1313.523696  	0.011452 
1315.452512  	0.011038 
1317.381328  	0.011143 
1319.310144  	0.011180 
1321.238960  	0.010638 
1323.167776  	0.010490 
1325.096592  	0.010541 
1327.025408  	0.010678 
1328.954224  	0.010662 
1330.883040  	0.010438 
1332.811856  	0.010050 
1334.740672  	0.009993 
1336.669488  	0.010743 
1338.598304  	0.012079 
1340.527120  	0.011565 
1342.455936  	0.009417 
1344.384752  	0.008673 
1346.313568  	0.008743 
1348.242384  	0.009119 
1350.171200  	0.009648 
1352.100016  	0.010138 
1354.028832  	0.010967 
1355.957648  	0.011486 
1357.886464  	0.011827 
1359.815280  	0.012964 
1361.744096  	0.015142 
1363.672912  	0.014997 
1365.601728  	0.012625 
1367.530544  	0.011906 
1369.459360  	0.010988 
1371.388176  	0.009553 
1373.316992  	0.009564 
1375.245808  	0.007679 
1377.174624  	0.004266 
1379.103440  	0.002059 
1381.032256  	0.000310 
1382.961072  	-0.000384 
1384.889888  	0.000396 
1386.818704  	0.002886 
1388.747520  	0.002708 
1390.676336  	0.000078 
1392.605152  	-0.002827 
1394.533968  	-0.001706 
1396.462784  	0.002529 
1398.391600  	0.003851 
1400.320416  	0.001769 
1402.249232  	-0.000821 
1404.178048  	-0.000370 
1406.106864  	-0.000601 
1408.035680  	-0.000893 
1409.964496  	0.000559 
1411.893312  	0.002474 
1413.822128  	0.004211 
1415.750944  	0.007454 
1417.679760  	0.012172 
1419.608576  	0.014272 
1421.537392  	0.011813 
1423.466208  	0.011959 
1425.395024  	0.010994 
1427.323840  	0.009889 
1429.252656  	0.010889 
1431.181472  	0.010703 
1433.110288  	0.009942 
1435.039104  	0.011800 
1436.967920  	0.013720 
1438.896736  	0.010897 
1440.825552  	0.009417 
1442.754368  	0.009414 
1444.683184  	0.009542 
1446.612000  	0.010936 
1448.540816  	0.010975 
1450.469632  	0.009620 
1452.398448  	0.010299 
1454.327264  	0.012809 
1456.256080  	0.019432 
1458.184896  	0.021212 
1460.113712  	0.015401 
1462.042528  	0.013073 
1463.971344  	0.015651 
1465.900160  	0.016860 
1467.828976  	0.015837 
1469.757792  	0.017841 
1471.686608  	0.024002 
1473.615424  	0.027236 
1475.544240  	0.025921 
1477.473056  	0.024518 
1479.401872  	0.023660 
1481.330688  	0.024735 
1483.259504  	0.024661 
1485.188320  	0.025844 
1487.117136  	0.028868 
1489.045952  	0.031623 
1490.974768  	0.029215 
1492.903584  	0.024442 
1494.832400  	0.024331 
1496.761216  	0.026002 
1498.690032  	0.023855 
1500.618848  	0.020515 
1502.547664  	0.018767 
1504.476480  	0.021561 
1506.405296  	0.030679 
1508.334112  	0.028428 
1510.262928  	0.021350 
1512.191744  	0.018230 
1514.120560  	0.017910 
1516.049376  	0.021433 
1517.978192  	0.022551 
1519.907008  	0.023794 
1521.835824  	0.027503 
1523.764640  	0.024995 
1525.693456  	0.024866 
1527.622272  	0.024272 
1529.551088  	0.022412 
1531.479904  	0.023306 
1533.408720  	0.026290 
1535.337536  	0.022954 
1537.266352  	0.022818 
1539.195168  	0.029660 
1541.123984  	0.030591 
1543.052800  	0.025323 
1544.981616  	0.021292 
1546.910432  	0.016759 
1548.839248  	0.016769 
1550.768064  	0.017245 
1552.696880  	0.016875 
1554.625696  	0.019305 
1556.554512  	0.022607 
1558.483328  	0.032413 
1560.412144  	0.027258 
1562.340960  	0.020022 
1564.269776  	0.020229 
1566.198592  	0.021485 
1568.127408  	0.024124 
1570.056224  	0.027266 
1571.985040  	0.025352 
1573.913856  	0.026792 
1575.842672  	0.031169 
1577.771488  	0.030239 
1579.700304  	0.026904 
1581.629120  	0.026021 
1583.557936  	0.025809 
1585.486752  	0.026153 
1587.415568  	0.026808 
1589.344384  	0.028405 
1591.273200  	0.030202 
1593.202016  	0.032609 
1595.130832  	0.034916 
1597.059648  	0.036582 
1598.988464  	0.037987 
1600.917280  	0.039851 
1602.846096  	0.041049 
1604.774912  	0.041453 
1606.703728  	0.041760 
1608.632544  	0.042219 
1610.561360  	0.041316 
1612.490176  	0.040528 
1614.418992  	0.041650 
1616.347808  	0.045366 
1618.276624  	0.044217 
1620.205440  	0.043080 
1622.134256  	0.046223 
1624.063072  	0.049404 
1625.991888  	0.049930 
1627.920704  	0.052823 
1629.849520  	0.054369 
1631.778336  	0.056716 
1633.707152  	0.062145 
1635.635968  	0.071046 
1637.564784  	0.071533 
1639.493600  	0.070024 
1641.422416  	0.070937 
1643.351232  	0.073598 
1645.280048  	0.079166 
1647.208864  	0.084811 
1649.137680  	0.081275 
1651.066496  	0.081550 
1652.995312  	0.089309 
1654.924128  	0.083860 
1656.852944  	0.077053 
1658.781760  	0.075121 
1660.710576  	0.075655 
1662.639392  	0.077092 
1664.568208  	0.074489 
1666.497024  	0.073398 
1668.425840  	0.076224 
1670.354656  	0.077049 
1672.283472  	0.073827 
1674.212288  	0.073700 
1676.141104  	0.073178 
1678.069920  	0.071119 
1679.998736  	0.072617 
1681.927552  	0.075780 
1683.856368  	0.082043 
1685.785184  	0.078513 
1687.714000  	0.074675 
1689.642816  	0.074121 
1691.571632  	0.072339 
1693.500448  	0.072769 
1695.429264  	0.076913 
1697.358080  	0.077397 
1699.286896  	0.077769 
1701.215712  	0.075337 
1703.144528  	0.069903 
1705.073344  	0.068954 
1707.002160  	0.065308 
1708.930976  	0.060770 
1710.859792  	0.057796 
1712.788608  	0.056331 
1714.717424  	0.056670 
1716.646240  	0.056242 
1718.575056  	0.050790 
1720.503872  	0.041736 
1722.432688  	0.036819 
1724.361504  	0.032888 
1726.290320  	0.029176 
1728.219136  	0.027392 
1730.147952  	0.026932 
1732.076768  	0.026707 
1734.005584  	0.027584 
1735.934400  	0.021173 
1737.863216  	0.018340 
1739.792032  	0.018231 
1741.720848  	0.016362 
1743.649664  	0.015274 
1745.578480  	0.014248 
1747.507296  	0.015010 
1749.436112  	0.015651 
1751.364928  	0.013631 
1753.293744  	0.009730 
1755.222560  	0.008825 
1757.151376  	0.009693 
1759.080192  	0.008542 
1761.009008  	0.009269 
1762.937824  	0.008486 
1764.866640  	0.006630 
1766.795456  	0.007476 
1768.724272  	0.008875 
1770.653088  	0.010403 
1772.581904  	0.011880 
1774.510720  	0.008765 
1776.439536  	0.006757 
1778.368352  	0.006238 
1780.297168  	0.007196 
1782.225984  	0.006319 
1784.154800  	0.006010 
1786.083616  	0.005534 
1788.012432  	0.005088 
1789.941248  	0.006893 
1791.870064  	0.009601 
1793.798880  	0.008143 
1795.727696  	0.006480 
1797.656512  	0.006247 
1799.585328  	0.007059 
1801.514144  	0.006920 
1803.442960  	0.005379 
1805.371776  	0.004477 
1807.300592  	0.004656 
1809.229408  	0.005339 
1811.158224  	0.005885 
1813.087040  	0.004717 
1815.015856  	0.003754 
1816.944672  	0.003837 
1818.873488  	0.004009 
1820.802304  	0.004134 
1822.731120  	0.004927 
1824.659936  	0.006226 
1826.588752  	0.005914 
1828.517568  	0.006743 
1830.446384  	0.007373 
1832.375200  	0.004671 
1834.304016  	0.003993 
1836.232832  	0.004394 
1838.161648  	0.004465 
1840.090464  	0.003846 
1842.019280  	0.005085 
1843.948096  	0.007685 
1845.876912  	0.006984 
1847.805728  	0.005236 
1849.734544  	0.004286 
1851.663360  	0.003361 
1853.592176  	0.003575 
1855.520992  	0.003453 
1857.449808  	0.003581 
1859.378624  	0.003650 
1861.307440  	0.003666 
1863.236256  	0.003391 
1865.165072  	0.004133 
1867.093888  	0.006125 
1869.022704  	0.007542 
1870.951520  	0.005180 
1872.880336  	0.003481 
1874.809152  	0.003320 
1876.737968  	0.003609 
1878.666784  	0.003370 
1880.595600  	0.003071 
1882.524416  	0.003128 
1884.453232  	0.003771 
1886.382048  	0.003781 
1888.310864  	0.004503 
1890.239680  	0.004492 
1892.168496  	0.003564 
1894.097312  	0.003746 
1896.026128  	0.003945 
1897.954944  	0.003337 
1899.883760  	0.002913 
1901.812576  	0.002501 
1903.741392  	0.002544 
1905.670208  	0.002628 
1907.599024  	0.003469 
1909.527840  	0.003746 
1911.456656  	0.003244 
1913.385472  	0.002611 
1915.314288  	0.002666 
1917.243104  	0.004012 
1919.171920  	0.004191 
1921.100736  	0.003289 
1923.029552  	0.003945 
1924.958368  	0.002713 
1926.887184  	0.001814 
1928.816000  	0.001751 
1930.744816  	0.002104 
1932.673632  	0.002069 
1934.602448  	0.001829 
1936.531264  	0.001512 
1938.460080  	0.002230 
1940.388896  	0.003094 
1942.317712  	0.003699 
1944.246528  	0.003540 
1946.175344  	0.003187 
1948.104160  	0.002088 
1950.032976  	0.001525 
1951.961792  	0.001340 
1953.890608  	0.002210 
1955.819424  	0.002322 
1957.748240  	0.002313 
1959.677056  	0.002272 
1961.605872  	0.002006 
1963.534688  	0.001763 
1965.463504  	0.001965 
1967.392320  	0.001341 
1969.321136  	0.000686 
1971.249952  	0.000720 
1973.178768  	0.002537 
1975.107584  	0.002835 
1977.036400  	0.002867 
1978.965216  	0.003398 
1980.894032  	0.004182 
1982.822848  	0.003231 
1984.751664  	0.002166 
1986.680480  	0.002129 
1988.609296  	0.002731 
1990.538112  	0.003085 
1992.466928  	0.003382 
1994.395744  	0.002509 
1996.324560  	0.002588 
1998.253376  	0.002299 
2000.182192  	0.001472 
2002.111008  	0.001730 
2004.039824  	0.002287 
2005.968640  	0.000707 
2007.897456  	0.000365 
2009.826272  	0.000380 
2011.755088  	0.002137 
2013.683904  	0.002740 
2015.612720  	0.002310 
2017.541536  	0.001612 
2019.470352  	0.001648 
2021.399168  	0.002011 
2023.327984  	0.002049 
2025.256800  	0.001929 
2027.185616  	0.001572 
2029.114432  	0.001027 
2031.043248  	0.001835 
2032.972064  	0.001685 
2034.900880  	0.001638 
2036.829696  	0.001616 
2038.758512  	0.002707 
2040.687328  	0.003871 
2042.616144  	0.003293 
2044.544960  	0.002398 
2046.473776  	0.002652 
2048.402592  	0.003335 
2050.331408  	0.004507 
2052.260224  	0.003408 
2054.189040  	0.002208 
2056.117856  	0.001862 
2058.046672  	0.002272 
2059.975488  	0.002994 
2061.904304  	0.002965 
2063.833120  	0.002472 
2065.761936  	0.002522 
2067.690752  	0.002449 
2069.619568  	0.002470 
2071.548384  	0.002539 
2073.477200  	0.002505 
2075.406016  	0.002418 
2077.334832  	0.002500 
2079.263648  	0.002025 
2081.192464  	0.002144 
2083.121280  	0.002188 
2085.050096  	0.002315 
2086.978912  	0.002272 
2088.907728  	0.002192 
2090.836544  	0.001987 
2092.765360  	0.001741 
2094.694176  	0.001442 
2096.622992  	0.001685 
2098.551808  	0.001778 
2100.480624  	0.001733 
2102.409440  	0.002135 
2104.338256  	0.002201 
2106.267072  	0.002006 
2108.195888  	0.002489 
2110.124704  	0.002486 
2112.053520  	0.002061 
2113.982336  	0.001882 
2115.911152  	0.001819 
2117.839968  	0.001594 
2119.768784  	0.001754 
2121.697600  	0.001501 
2123.626416  	0.001550 
2125.555232  	0.001266 
2127.484048  	0.000372 
2129.412864  	-0.000307 
2131.341680  	-0.000469 
2133.270496  	-0.000202 
2135.199312  	0.000320 
2137.128128  	0.000434 
2139.056944  	0.000617 
2140.985760  	0.000158 
2142.914576  	0.000585 
2144.843392  	0.000316 
2146.772208  	0.000384 
2148.701024  	0.000015 
2150.629840  	-0.000304 
2152.558656  	-0.001319 
2154.487472  	-0.001668 
2156.416288  	-0.001439 
2158.345104  	-0.000418 
2160.273920  	0.002224 
2162.202736  	0.002994 
2164.131552  	0.001338 
2166.060368  	0.001526 
2167.989184  	0.001230 
2169.918000  	0.000709 
2171.846816  	0.001038 
2173.775632  	0.001593 
2175.704448  	0.001987 
2177.633264  	0.001366 
2179.562080  	0.000599 
2181.490896  	0.001147 
2183.419712  	0.000898 
2185.348528  	0.001096 
2187.277344  	0.001733 
2189.206160  	0.001311 
2191.134976  	0.000772 
2193.063792  	0.000959 
2194.992608  	0.001362 
2196.921424  	0.001365 
2198.850240  	0.001030 
2200.779056  	0.001529 
2202.707872  	0.002028 
2204.636688  	0.001837 
2206.565504  	0.001431 
2208.494320  	0.001686 
2210.423136  	0.001825 
2212.351952  	0.002012 
2214.280768  	0.001996 
2216.209584  	0.002035 
2218.138400  	0.001828 
2220.067216  	0.001378 
2221.996032  	0.001033 
2223.924848  	0.001417 
2225.853664  	0.001735 
2227.782480  	0.001786 
2229.711296  	0.001858 
2231.640112  	0.002006 
2233.568928  	0.002064 
2235.497744  	0.002092 
2237.426560  	0.002171 
2239.355376  	0.002092 
2241.284192  	0.001768 
2243.213008  	0.001757 
2245.141824  	0.001929 
2247.070640  	0.001893 
2248.999456  	0.001803 
2250.928272  	0.001805 
2252.857088  	0.001516 
2254.785904  	0.001657 
2256.714720  	0.001870 
2258.643536  	0.001985 
2260.572352  	0.001884 
2262.501168  	0.001537 
2264.429984  	0.001417 
2266.358800  	0.001832 
2268.287616  	0.002223 
2270.216432  	0.002395 
2272.145248  	0.002658 
2274.074064  	0.002791 
2276.002880  	0.002569 
2277.931696  	0.002523 
2279.860512  	0.002672 
2281.789328  	0.003133 
2283.718144  	0.003304 
2285.646960  	0.003242 
2287.575776  	0.003180 
2289.504592  	0.003172 
2291.433408  	0.003002 
2293.362224  	0.002817 
2295.291040  	0.002564 
2297.219856  	0.002479 
2299.148672  	0.002134 
2301.077488  	0.001867 
2303.006304  	0.002000 
2304.935120  	0.001789 
2306.863936  	0.001027 
2308.792752  	0.000401 
2310.721568  	0.000180 
2312.650384  	-0.000054 
2314.579200  	-0.000469 
2316.508016  	-0.000841 
2318.436832  	-0.001357 
2320.365648  	-0.001977 
2322.294464  	-0.002423 
2324.223280  	-0.002611 
2326.152096  	-0.003720 
2328.080912  	-0.004987 
2330.009728  	-0.005745 
2331.938544  	-0.006232 
2333.867360  	-0.006305 
2335.796176  	-0.006726 
2337.724992  	-0.007099 
2339.653808  	-0.006982 
2341.582624  	-0.007253 
2343.511440  	-0.006963 
2345.440256  	-0.005876 
2347.369072  	-0.003870 
2349.297888  	-0.003255 
2351.226704  	-0.004798 
2353.155520  	-0.007119 
2355.084336  	-0.008813 
2357.013152  	-0.010293 
2358.941968  	-0.010982 
2360.870784  	-0.011443 
2362.799600  	-0.011805 
2364.728416  	-0.011183 
2366.657232  	-0.009890 
2368.586048  	-0.008245 
2370.514864  	-0.005866 
2372.443680  	-0.004279 
2374.372496  	-0.003000 
2376.301312  	-0.001584 
2378.230128  	-0.000312 
2380.158944  	0.000585 
2382.087760  	0.001353 
2384.016576  	0.002050 
2385.945392  	0.002452 
2387.874208  	0.002590 
2389.803024  	0.002599 
2391.731840  	0.002581 
2393.660656  	0.002565 
2395.589472  	0.002484 
2397.518288  	0.002559 
2399.447104  	0.002685 
2401.375920  	0.002628 
2403.304736  	0.002627 
2405.233552  	0.002641 
2407.162368  	0.002612 
2409.091184  	0.002633 
2411.020000  	0.002700 
2412.948816  	0.002684 
2414.877632  	0.002588 
2416.806448  	0.002588 
2418.735264  	0.002690 
2420.664080  	0.002778 
2422.592896  	0.002847 
2424.521712  	0.002956 
2426.450528  	0.002988 
2428.379344  	0.002909 
2430.308160  	0.002835 
2432.236976  	0.002861 
2434.165792  	0.002885 
2436.094608  	0.002888 
2438.023424  	0.003081 
2439.952240  	0.003130 
2441.881056  	0.003115 
2443.809872  	0.003163 
2445.738688  	0.003062 
2447.667504  	0.003025 
2449.596320  	0.003224 
2451.525136  	0.003297 
2453.453952  	0.003110 
2455.382768  	0.003269 
2457.311584  	0.003301 
2459.240400  	0.003205 
2461.169216  	0.003141 
2463.098032  	0.003154 
2465.026848  	0.003333 
2466.955664  	0.003303 
2468.884480  	0.003108 
2470.813296  	0.003209 
2472.742112  	0.003318 
2474.670928  	0.003461 
2476.599744  	0.003317 
2478.528560  	0.003218 
2480.457376  	0.003342 
2482.386192  	0.003381 
2484.315008  	0.003157 
2486.243824  	0.003269 
2488.172640  	0.003315 
2490.101456  	0.003346 
2492.030272  	0.003434 
2493.959088  	0.003410 
2495.887904  	0.003369 
2497.816720  	0.003325 
2499.745536  	0.003382 
2501.674352  	0.003374 
2503.603168  	0.003461 
2505.531984  	0.003725 
2507.460800  	0.003734 
2509.389616  	0.003791 
2511.318432  	0.003484 
2513.247248  	0.003402 
2515.176064  	0.003521 
2517.104880  	0.003753 
2519.033696  	0.003758 
2520.962512  	0.003670 
2522.891328  	0.003560 
2524.820144  	0.003586 
2526.748960  	0.003678 
2528.677776  	0.003764 
2530.606592  	0.003967 
2532.535408  	0.003919 
2534.464224  	0.003700 
2536.393040  	0.003602 
2538.321856  	0.003602 
2540.250672  	0.003733 
2542.179488  	0.003854 
2544.108304  	0.003981 
2546.037120  	0.003971 
2547.965936  	0.003762 
2549.894752  	0.003718 
2551.823568  	0.003940 
2553.752384  	0.004113 
2555.681200  	0.004356 
2557.610016  	0.004496 
2559.538832  	0.004719 
2561.467648  	0.004721 
2563.396464  	0.004579 
2565.325280  	0.004561 
2567.254096  	0.004495 
2569.182912  	0.004445 
2571.111728  	0.004657 
2573.040544  	0.004814 
2574.969360  	0.004753 
2576.898176  	0.004611 
2578.826992  	0.004578 
2580.755808  	0.004657 
2582.684624  	0.004547 
2584.613440  	0.004593 
2586.542256  	0.004888 
2588.471072  	0.004985 
2590.399888  	0.004853 
2592.328704  	0.004916 
2594.257520  	0.004881 
2596.186336  	0.004896 
2598.115152  	0.005053 
2600.043968  	0.005073 
2601.972784  	0.005294 
2603.901600  	0.005349 
2605.830416  	0.005260 
2607.759232  	0.005322 
2609.688048  	0.005495 
2611.616864  	0.005629 
2613.545680  	0.005674 
2615.474496  	0.005637 
2617.403312  	0.005657 
2619.332128  	0.005673 
2621.260944  	0.005653 
2623.189760  	0.005767 
2625.118576  	0.005971 
2627.047392  	0.005990 
2628.976208  	0.005947 
2630.905024  	0.005996 
2632.833840  	0.006126 
2634.762656  	0.006243 
2636.691472  	0.006427 
2638.620288  	0.006398 
2640.549104  	0.006387 
2642.477920  	0.006504 
2644.406736  	0.006627 
2646.335552  	0.006638 
2648.264368  	0.006674 
2650.193184  	0.006721 
2652.122000  	0.006620 
2654.050816  	0.006677 
2655.979632  	0.006786 
2657.908448  	0.006839 
2659.837264  	0.006854 
2661.766080  	0.006855 
2663.694896  	0.006696 
2665.623712  	0.006571 
2667.552528  	0.006692 
2669.481344  	0.006756 
2671.410160  	0.006707 
2673.338976  	0.006721 
2675.267792  	0.006890 
2677.196608  	0.007005 
2679.125424  	0.006987 
2681.054240  	0.006944 
2682.983056  	0.006832 
2684.911872  	0.006774 
2686.840688  	0.006933 
2688.769504  	0.007088 
2690.698320  	0.007157 
2692.627136  	0.007064 
2694.555952  	0.006997 
2696.484768  	0.007022 
2698.413584  	0.006994 
2700.342400  	0.006971 
2702.271216  	0.007008 
2704.200032  	0.007055 
2706.128848  	0.007161 
2708.057664  	0.007135 
2709.986480  	0.007116 
2711.915296  	0.007154 
2713.844112  	0.007242 
2715.772928  	0.007250 
2717.701744  	0.007171 
2719.630560  	0.007204 
2721.559376  	0.007284 
2723.488192  	0.007258 
2725.417008  	0.007166 
2727.345824  	0.007093 
2729.274640  	0.007223 
2731.203456  	0.007337 
2733.132272  	0.007266 
2735.061088  	0.007205 
2736.989904  	0.007186 
2738.918720  	0.007169 
2740.847536  	0.007171 
2742.776352  	0.007218 
2744.705168  	0.007217 
2746.633984  	0.007338 
2748.562800  	0.007278 
2750.491616  	0.007224 
2752.420432  	0.007379 
2754.349248  	0.007395 
2756.278064  	0.007283 
2758.206880  	0.007398 
2760.135696  	0.007430 
2762.064512  	0.007280 
2763.993328  	0.007334 
2765.922144  	0.007441 
2767.850960  	0.007365 
2769.779776  	0.007408 
2771.708592  	0.007404 
2773.637408  	0.007395 
2775.566224  	0.007404 
2777.495040  	0.007376 
2779.423856  	0.007356 
2781.352672  	0.007367 
2783.281488  	0.007378 
2785.210304  	0.007319 
2787.139120  	0.007292 
2789.067936  	0.007275 
2790.996752  	0.007086 
2792.925568  	0.006893 
2794.854384  	0.006857 
2796.783200  	0.006888 
2798.712016  	0.006843 
2800.640832  	0.006776 
2802.569648  	0.006706 
2804.498464  	0.006596 
2806.427280  	0.006607 
2808.356096  	0.006592 
2810.284912  	0.006470 
2812.213728  	0.006433 
2814.142544  	0.006398 
2816.071360  	0.006218 
2818.000176  	0.006013 
2819.928992  	0.005862 
2821.857808  	0.005717 
2823.786624  	0.005595 
2825.715440  	0.005419 
2827.644256  	0.005231 
2829.573072  	0.004946 
2831.501888  	0.004526 
2833.430704  	0.004249 
2835.359520  	0.004051 
2837.288336  	0.003719 
2839.217152  	0.003339 
2841.145968  	0.003011 
2843.074784  	0.002750 
2845.003600  	0.002521 
2846.932416  	0.002433 
2848.861232  	0.002330 
2850.790048  	0.001844 
2852.718864  	0.000869 
2854.647680  	-0.000414 
2856.576496  	-0.001814 
2858.505312  	-0.003128 
2860.434128  	-0.004325 
2862.362944  	-0.005607 
2864.291760  	-0.006989 
2866.220576  	-0.008030 
2868.149392  	-0.009084 
2870.078208  	-0.010035 
2872.007024  	-0.010482 
2873.935840  	-0.010970 
2875.864656  	-0.011541 
2877.793472  	-0.012199 
2879.722288  	-0.013007 
2881.651104  	-0.014032 
2883.579920  	-0.014846 
2885.508736  	-0.014996 
2887.437552  	-0.014714 
2889.366368  	-0.014786 
2891.295184  	-0.015347 
2893.224000  	-0.015724 
2895.152816  	-0.015654 
2897.081632  	-0.015989 
2899.010448  	-0.017919 
2900.939264  	-0.019756 
2902.868080  	-0.018149 
2904.796896  	-0.016263 
2906.725712  	-0.015309 
2908.654528  	-0.014549 
2910.583344  	-0.014101 
2912.512160  	-0.013059 
2914.440976  	-0.011256 
2916.369792  	-0.009927 
2918.298608  	-0.009497 
2920.227424  	-0.009610 
2922.156240  	-0.009761 
2924.085056  	-0.009648 
2926.013872  	-0.009354 
2927.942688  	-0.009008 
2929.871504  	-0.008634 
2931.800320  	-0.008152 
2933.729136  	-0.007736 
2935.657952  	-0.007670 
2937.586768  	-0.007415 
2939.515584  	-0.007183 
2941.444400  	-0.007468 
2943.373216  	-0.007768 
2945.302032  	-0.007587 
2947.230848  	-0.007302 
2949.159664  	-0.007730 
2951.088480  	-0.008650 
2953.017296  	-0.009550 
2954.946112  	-0.010427 
2956.874928  	-0.011538 
2958.803744  	-0.012824 
2960.732560  	-0.014220 
2962.661376  	-0.015928 
2964.590192  	-0.017997 
2966.519008  	-0.020568 
2968.447824  	-0.023072 
2970.376640  	-0.024881 
2972.305456  	-0.025801 
2974.234272  	-0.025652 
2976.163088  	-0.025111 
2978.091904  	-0.024101 
2980.020720  	-0.023012 
2981.949536  	-0.021779 
2983.878352  	-0.021093 
2985.807168  	-0.021304 
2987.735984  	-0.021598 
2989.664800  	-0.020426 
2991.593616  	-0.015901 
2993.522432  	-0.013045 
2995.451248  	-0.012241 
2997.380064  	-0.011085 
2999.308880  	-0.009451 
3001.237696  	-0.007750 
3003.166512  	-0.006070 
3005.095328  	-0.004380 
3007.024144  	-0.002647 
3008.952960  	-0.000878 
3010.881776  	0.000942 
3012.810592  	0.002547 
3014.739408  	0.003821 
3016.668224  	0.005017 
3018.597040  	0.006214 
3020.525856  	0.007516 
3022.454672  	0.008838 
3024.383488  	0.010069 
3026.312304  	0.010912 
3028.241120  	0.011678 
3030.169936  	0.012773 
3032.098752  	0.013740 
3034.027568  	0.014420 
3035.956384  	0.015040 
3037.885200  	0.015444 
3039.814016  	0.015887 
3041.742832  	0.016266 
3043.671648  	0.016650 
3045.600464  	0.016954 
3047.529280  	0.017326 
3049.458096  	0.017663 
3051.386912  	0.017775 
3053.315728  	0.018018 
3055.244544  	0.018456 
3057.173360  	0.018713 
3059.102176  	0.018804 
3061.030992  	0.018828 
3062.959808  	0.019046 
3064.888624  	0.019451 
3066.817440  	0.019642 
3068.746256  	0.019704 
3070.675072  	0.019868 
3072.603888  	0.020035 
3074.532704  	0.020199 
3076.461520  	0.020542 
3078.390336  	0.020770 
3080.319152  	0.020880 
3082.247968  	0.021054 
3084.176784  	0.021199 
3086.105600  	0.021259 
3088.034416  	0.021398 
3089.963232  	0.021465 
3091.892048  	0.021593 
3093.820864  	0.021755 
3095.749680  	0.022163 
3097.678496  	0.022379 
3099.607312  	0.022525 
3101.536128  	0.022751 
3103.464944  	0.022856 
3105.393760  	0.023055 
3107.322576  	0.023271 
3109.251392  	0.023265 
3111.180208  	0.023306 
3113.109024  	0.023564 
3115.037840  	0.024091 
3116.966656  	0.024355 
3118.895472  	0.024344 
3120.824288  	0.024374 
3122.753104  	0.024474 
3124.681920  	0.024474 
3126.610736  	0.024478 
3128.539552  	0.024504 
3130.468368  	0.024680 
3132.397184  	0.024910 
3134.326000  	0.024876 
3136.254816  	0.024896 
3138.183632  	0.024948 
3140.112448  	0.024987 
3142.041264  	0.025122 
3143.970080  	0.025212 
3145.898896  	0.025361 
3147.827712  	0.025496 
3149.756528  	0.025583 
3151.685344  	0.025707 
3153.614160  	0.025796 
3155.542976  	0.025870 
3157.471792  	0.026024 
3159.400608  	0.026166 
3161.329424  	0.026242 
3163.258240  	0.026306 
3165.187056  	0.026439 
3167.115872  	0.026632 
3169.044688  	0.026760 
3170.973504  	0.026742 
3172.902320  	0.026665 
3174.831136  	0.026692 
3176.759952  	0.026944 
3178.688768  	0.027092 
3180.617584  	0.027123 
3182.546400  	0.026996 
3184.475216  	0.026935 
3186.404032  	0.026924 
3188.332848  	0.026870 
3190.261664  	0.026785 
3192.190480  	0.026560 
3194.119296  	0.026546 
3196.048112  	0.026782 
3197.976928  	0.026911 
3199.905744  	0.026625 
3201.834560  	0.026182 
3203.763376  	0.025985 
3205.692192  	0.025987 
3207.621008  	0.026106 
3209.549824  	0.026224 
3211.478640  	0.026164 
3213.407456  	0.025922 
3215.336272  	0.025719 
3217.265088  	0.025459 
3219.193904  	0.025258 
3221.122720  	0.025050 
3223.051536  	0.024873 
3224.980352  	0.024558 
3226.909168  	0.024240 
3228.837984  	0.024203 
3230.766800  	0.023992 
3232.695616  	0.023609 
3234.624432  	0.023493 
3236.553248  	0.023505 
3238.482064  	0.023551 
3240.410880  	0.023458 
3242.339696  	0.023484 
3244.268512  	0.023548 
3246.197328  	0.023410 
3248.126144  	0.023215 
3250.054960  	0.023130 
3251.983776  	0.023111 
3253.912592  	0.023370 
3255.841408  	0.023303 
3257.770224  	0.023276 
3259.699040  	0.023396 
3261.627856  	0.023530 
3263.556672  	0.023585 
3265.485488  	0.023537 
3267.414304  	0.023353 
3269.343120  	0.023398 
3271.271936  	0.023513 
3273.200752  	0.023673 
3275.129568  	0.023889 
3277.058384  	0.023937 
3278.987200  	0.023645 
3280.916016  	0.023578 
3282.844832  	0.023760 
3284.773648  	0.023942 
3286.702464  	0.024055 
3288.631280  	0.024191 
3290.560096  	0.024202 
3292.488912  	0.024239 
3294.417728  	0.024239 
3296.346544  	0.024459 
3298.275360  	0.024622 
3300.204176  	0.024498 
3302.132992  	0.024559 
3304.061808  	0.024786 
3305.990624  	0.024983 
3307.919440  	0.025340 
3309.848256  	0.025543 
3311.777072  	0.025579 
3313.705888  	0.025760 
3315.634704  	0.025934 
3317.563520  	0.026160 
3319.492336  	0.026264 
3321.421152  	0.026172 
3323.349968  	0.026372 
3325.278784  	0.026583 
3327.207600  	0.026582 
3329.136416  	0.026721 
3331.065232  	0.026931 
3332.994048  	0.026953 
3334.922864  	0.027093 
3336.851680  	0.027367 
3338.780496  	0.027398 
3340.709312  	0.027368 
3342.638128  	0.027521 
3344.566944  	0.027372 
3346.495760  	0.027161 
3348.424576  	0.027047 
3350.353392  	0.027124 
3352.282208  	0.027129 
3354.211024  	0.027128 
3356.139840  	0.027101 
3358.068656  	0.026969 
3359.997472  	0.026847 
3361.926288  	0.026850 
3363.855104  	0.026837 
3365.783920  	0.026776 
3367.712736  	0.026708 
3369.641552  	0.026542 
3371.570368  	0.026291 
3373.499184  	0.026038 
3375.428000  	0.025941 
3377.356816  	0.025917 
3379.285632  	0.025908 
3381.214448  	0.025996 
3383.143264  	0.026037 
3385.072080  	0.025834 
3387.000896  	0.025510 
3388.929712  	0.025309 
3390.858528  	0.025287 
3392.787344  	0.025522 
3394.716160  	0.025449 
3396.644976  	0.025403 
3398.573792  	0.025188 
3400.502608  	0.024896 
3402.431424  	0.024722 
3404.360240  	0.024568 
3406.289056  	0.024555 
3408.217872  	0.024568 
3410.146688  	0.024431 
3412.075504  	0.024317 
3414.004320  	0.024287 
3415.933136  	0.024285 
3417.861952  	0.024308 
3419.790768  	0.024657 
3421.719584  	0.024663 
3423.648400  	0.024105 
3425.577216  	0.023924 
3427.506032  	0.023928 
3429.434848  	0.023901 
3431.363664  	0.023842 
3433.292480  	0.023615 
3435.221296  	0.023558 
3437.150112  	0.023479 
3439.078928  	0.023315 
3441.007744  	0.023492 
3442.936560  	0.023586 
3444.865376  	0.023451 
3446.794192  	0.023897 
3448.723008  	0.023526 
3450.651824  	0.022806 
3452.580640  	0.022617 
3454.509456  	0.022461 
3456.438272  	0.022353 
3458.367088  	0.022213 
3460.295904  	0.022154 
3462.224720  	0.022346 
3464.153536  	0.021991 
3466.082352  	0.021727 
3468.011168  	0.021591 
3469.939984  	0.021159 
3471.868800  	0.020852 
3473.797616  	0.020609 
3475.726432  	0.020469 
3477.655248  	0.020251 
3479.584064  	0.020257 
3481.512880  	0.020391 
3483.441696  	0.019955 
3485.370512  	0.019409 
3487.299328  	0.019340 
3489.228144  	0.018913 
3491.156960  	0.018551 
3493.085776  	0.018444 
3495.014592  	0.018561 
3496.943408  	0.018530 
3498.872224  	0.018210 
3500.801040  	0.018263 
3502.729856  	0.018777 
3504.658672  	0.018409 
3506.587488  	0.017385 
3508.516304  	0.017538 
3510.445120  	0.017562 
3512.373936  	0.016780 
3514.302752  	0.016346 
3516.231568  	0.016206 
3518.160384  	0.016362 
3520.089200  	0.016539 
3522.018016  	0.016893 
3523.946832  	0.017075 
3525.875648  	0.016789 
3527.804464  	0.016987 
3529.733280  	0.016427 
3531.662096  	0.015410 
3533.590912  	0.014963 
3535.519728  	0.015477 
3537.448544  	0.015250 
3539.377360  	0.014646 
3541.306176  	0.014697 
3543.234992  	0.015404 
3545.163808  	0.016490 
3547.092624  	0.016312 
3549.021440  	0.014742 
3550.950256  	0.014448 
3552.879072  	0.014598 
3554.807888  	0.013557 
3556.736704  	0.012913 
3558.665520  	0.013172 
3560.594336  	0.013689 
3562.523152  	0.014037 
3564.451968  	0.015574 
3566.380784  	0.018590 
3568.309600  	0.017639 
3570.238416  	0.013800 
3572.167232  	0.011966 
3574.096048  	0.011815 
3576.024864  	0.011787 
3577.953680  	0.011620 
3579.882496  	0.011529 
3581.811312  	0.011407 
3583.740128  	0.011602 
3585.668944  	0.013484 
3587.597760  	0.015540 
3589.526576  	0.012832 
3591.455392  	0.010459 
3593.384208  	0.011188 
3595.313024  	0.011636 
3597.241840  	0.010778 
3599.170656  	0.010508 
3601.099472  	0.010406 
3603.028288  	0.009070 
3604.957104  	0.008792 
3606.885920  	0.010415 
3608.814736  	0.011170 
3610.743552  	0.010157 
3612.672368  	0.010601 
3614.601184  	0.010540 
3616.530000  	0.009904 
3618.458816  	0.010826 
3620.387632  	0.009669 
3622.316448  	0.006518 
3624.245264  	0.005065 
3626.174080  	0.006131 
3628.102896  	0.009619 
3630.031712  	0.009348 
3631.960528  	0.005169 
3633.889344  	0.003881 
3635.818160  	0.002547 
3637.746976  	0.001632 
3639.675792  	0.001069 
3641.604608  	0.000722 
3643.533424  	0.000605 
3645.462240  	0.001951 
3647.391056  	0.006208 
3649.319872  	0.008242 
3651.248688  	0.004710 
3653.177504  	-0.000832 
3655.106320  	-0.001949 
3657.035136  	-0.002280 
3658.963952  	-0.004949 
3660.892768  	-0.006195 
3662.821584  	-0.006655 
3664.750400  	-0.006601 
3666.679216  	-0.005448 
3668.608032  	-0.001800 
3670.536848  	0.000283 
3672.465664  	-0.002060 
3674.394480  	-0.000761 
3676.323296  	0.000524 
3678.252112  	-0.001984 
3680.180928  	-0.003583 
3682.109744  	-0.005663 
3684.038560  	-0.006211 
3685.967376  	-0.004889 
3687.896192  	-0.001647 
3689.825008  	0.000502 
3691.753824  	-0.001479 
3693.682640  	-0.004256 
3695.611456  	-0.005091 
3697.540272  	-0.004770 
3699.469088  	-0.003622 
3701.397904  	-0.001150 
3703.326720  	-0.000848 
3705.255536  	-0.001664 
3707.184352  	-0.000637 
3709.113168  	0.002411 
3711.041984  	0.005925 
3712.970800  	0.005031 
3714.899616  	0.001803 
3716.828432  	0.000483 
3718.757248  	0.001095 
3720.686064  	0.001913 
3722.614880  	0.002932 
3724.543696  	0.003047 
3726.472512  	0.002952 
3728.401328  	0.001562 
3730.330144  	0.001853 
3732.258960  	0.005279 
3734.187776  	0.008976 
3736.116592  	0.009565 
3738.045408  	0.005714 
3739.974224  	0.003814 
3741.903040  	0.004377 
3743.831856  	0.007228 
3745.760672  	0.007861 
3747.689488  	0.006463 
3749.618304  	0.008623 
3751.547120  	0.009637 
3753.475936  	0.006139 
3755.404752  	0.003272 
3757.333568  	0.003609 
3759.262384  	0.004447 
3761.191200  	0.002809 
3763.120016  	0.001402 
3765.048832  	0.002823 
3766.977648  	0.002988 
3768.906464  	0.003344 
3770.835280  	0.003150 
3772.764096  	0.000875 
3774.692912  	0.000151 
3776.621728  	0.000599 
3778.550544  	0.002412 
3780.479360  	0.002763 
3782.408176  	0.001228 
3784.336992  	0.001508 
3786.265808  	0.001218 
3788.194624  	0.000250 
3790.123440  	-0.000300 
3792.052256  	-0.000249 
3793.981072  	0.000675 
3795.909888  	0.003118 
3797.838704  	0.003887 
3799.767520  	0.004418 
3801.696336  	0.006842 
3803.625152  	0.004498 
3805.553968  	0.003124 
3807.482784  	0.003684 
3809.411600  	0.001385 
3811.340416  	0.000271 
3813.269232  	0.000979 
3815.198048  	0.003783 
3817.126864  	0.005096 
3819.055680  	0.005205 
3820.984496  	0.007520 
3822.913312  	0.004951 
3824.842128  	0.002608 
3826.770944  	0.002889 
3828.699760  	0.002001 
3830.628576  	0.002181 
3832.557392  	0.003304 
3834.486208  	0.003849 
3836.415024  	0.005487 
3838.343840  	0.007347 
3840.272656  	0.006826 
3842.201472  	0.004547 
3844.130288  	0.002970 
3846.059104  	0.001222 
3847.987920  	0.000836 
3849.916736  	0.002687 
3851.845552  	0.006901 
3853.774368  	0.010346 
3855.703184  	0.006373 
3857.632000  	0.003244 
3859.560816  	0.001754 
3861.489632  	0.002748 
3863.418448  	0.004482 
3865.347264  	0.004751 
3867.276080  	0.003334 
3869.204896  	0.005289 
3871.133712  	0.005839 
3873.062528  	0.004055 
3874.991344  	0.003178 
3876.920160  	0.001083 
3878.848976  	0.002192 
3880.777792  	0.004345 
3882.706608  	0.003231 
3884.635424  	0.003381 
3886.564240  	0.003469 
3888.493056  	0.001560 
3890.421872  	0.002685 
3892.350688  	0.003315 
3894.279504  	0.001326 
3896.208320  	0.000642 
3898.137136  	0.002674 
3900.065952  	0.005139 
3901.994768  	0.005898 
3903.923584  	0.005863 
3905.852400  	0.003768 
3907.781216  	0.000887 
3909.710032  	-0.000408 
3911.638848  	-0.000451 
3913.567664  	-0.000092 
3915.496480  	0.001135 
3917.425296  	0.002528 
3919.354112  	0.002311 
3921.282928  	0.001714 
3923.211744  	0.001756 
3925.140560  	0.002056 
3927.069376  	0.001060 
3928.998192  	0.001095 
3930.927008  	0.001915 
3932.855824  	0.001989 
3934.784640  	0.000845 
3936.713456  	0.000143 
3938.642272  	0.000098 
3940.571088  	0.000799 
3942.499904  	0.001896 
3944.428720  	0.001405 
3946.357536  	0.000973 
3948.286352  	0.001598 
3950.215168  	0.001474 
3952.143984  	0.000522 
3954.072800  	-0.000029 
3956.001616  	0.000125 
3957.930432  	0.000175 
3959.859248  	0.000206 
3961.788064  	0.000418 
3963.716880  	0.000137 
3965.645696  	-0.000181 
3967.574512  	0.000079 
3969.503328  	0.000144 
3971.432144  	0.000001 
3973.360960  	0.000191 
3975.289776  	0.000282 
3977.218592  	-0.000046 
3979.147408  	-0.000227 
3981.076224  	-0.000213 
3983.005040  	-0.000243 
3984.933856  	-0.000289 
3986.862672  	-0.000352 
3988.791488  	-0.000114 
3990.720304  	0.000159 
3992.649120  	-0.000153 
3994.577936  	-0.000106 
3996.506752  	-0.000094 
3998.435568  	-0.000394 
4000.364384  	-0.000386 