##TITLE=No Description
##DATA TYPE=INFRARED SPECTRUM
##XUNITS=1/CM
##YUNITS=Abs
399.264912  	0.214894 
401.193728  	0.214966 
403.122544  	0.215733 
405.051360  	0.215405 
406.980176  	0.220858 
408.908992  	0.222240 
410.837808  	0.220342 
412.766624  	0.216623 
414.695440  	0.212859 
416.624256  	0.207140 
418.553072  	0.210330 
420.481888  	0.211712 
422.410704  	0.211588 
424.339520  	0.207300 
426.268336  	0.200093 
428.197152  	0.198002 
430.125968  	0.201679 
432.054784  	0.196994 
433.983600  	0.196082 
435.912416  	0.196985 
437.841232  	0.198251 
439.770048  	0.196062 
441.698864  	0.194294 
443.627680  	0.194238 
445.556496  	0.194672 
447.485312  	0.193247 
449.414128  	0.195844 
451.342944  	0.197383 
453.271760  	0.196893 
455.200576  	0.196898 
457.129392  	0.198608 
459.058208  	0.196604 
460.987024  	0.196183 
462.915840  	0.195696 
464.844656  	0.195137 
466.773472  	0.195836 
468.702288  	0.195785 
470.631104  	0.193470 
472.559920  	0.194518 
474.488736  	0.196030 
476.417552  	0.195668 
478.346368  	0.194602 
480.275184  	0.197401 
482.204000  	0.199270 
484.132816  	0.200719 
486.061632  	0.198704 
487.990448  	0.198835 
489.919264  	0.201348 
491.848080  	0.202213 
493.776896  	0.200062 
495.705712  	0.199699 
497.634528  	0.201660 
499.563344  	0.203954 
501.492160  	0.202437 
503.420976  	0.200916 
505.349792  	0.203221 
507.278608  	0.205895 
509.207424  	0.205025 
511.136240  	0.205332 
513.065056  	0.205797 
514.993872  	0.207639 
516.922688  	0.209186 
518.851504  	0.209939 
520.780320  	0.210506 
522.709136  	0.211597 
524.637952  	0.211904 
526.566768  	0.214121 
528.495584  	0.213876 
530.424400  	0.212762 
532.353216  	0.212057 
534.282032  	0.212429 
536.210848  	0.212470 
538.139664  	0.211909 
540.068480  	0.211344 
541.997296  	0.211039 
543.926112  	0.210149 
545.854928  	0.209652 
547.783744  	0.208877 
549.712560  	0.208726 
551.641376  	0.208040 
553.570192  	0.207180 
555.499008  	0.205963 
557.427824  	0.206667 
559.356640  	0.206801 
561.285456  	0.205755 
563.214272  	0.204920 
565.143088  	0.204066 
567.071904  	0.202878 
569.000720  	0.202237 
570.929536  	0.201290 
572.858352  	0.201001 
574.787168  	0.200462 
576.715984  	0.200014 
578.644800  	0.198617 
580.573616  	0.197190 
582.502432  	0.196182 
584.431248  	0.195784 
586.360064  	0.194932 
588.288880  	0.194076 
590.217696  	0.193055 
592.146512  	0.192830 
594.075328  	0.192145 
596.004144  	0.191933 
597.932960  	0.191707 
599.861776  	0.191434 
601.790592  	0.190715 
603.719408  	0.190063 
605.648224  	0.189359 
607.577040  	0.189199 
609.505856  	0.189057 
611.434672  	0.188456 
613.363488  	0.187358 
615.292304  	0.187034 
617.221120  	0.186451 
619.149936  	0.186311 
621.078752  	0.185756 
623.007568  	0.185615 
624.936384  	0.184950 
626.865200  	0.185067 
628.794016  	0.184926 
630.722832  	0.184181 
632.651648  	0.183459 
634.580464  	0.183737 
636.509280  	0.183995 
638.438096  	0.184188 
640.366912  	0.184098 
642.295728  	0.183997 
644.224544  	0.183618 
646.153360  	0.183100 
648.082176  	0.181678 
650.010992  	0.180067 
651.939808  	0.178605 
653.868624  	0.178036 
655.797440  	0.177225 
657.726256  	0.175667 
659.655072  	0.174084 
661.583888  	0.172921 
663.512704  	0.171308 
665.441520  	0.169823 
667.370336  	0.167028 
669.299152  	0.164978 
671.227968  	0.165343 
673.156784  	0.164846 
675.085600  	0.163337 
677.014416  	0.162652 
678.943232  	0.161904 
680.872048  	0.161041 
682.800864  	0.159846 
684.729680  	0.159015 
686.658496  	0.158019 
688.587312  	0.157195 
690.516128  	0.156448 
692.444944  	0.155885 
694.373760  	0.155057 
696.302576  	0.154029 
698.231392  	0.153115 
700.160208  	0.152701 
702.089024  	0.151581 
704.017840  	0.150265 
705.946656  	0.149019 
707.875472  	0.148370 
709.804288  	0.147364 
711.733104  	0.146276 
713.661920  	0.145097 
715.590736  	0.144309 
717.519552  	0.143833 
719.448368  	0.143282 
721.377184  	0.143119 
723.306000  	0.143522 
725.234816  	0.143315 
727.163632  	0.142699 
729.092448  	0.141938 
731.021264  	0.140935 
732.950080  	0.139716 
734.878896  	0.138378 
736.807712  	0.137084 
738.736528  	0.136214 
740.665344  	0.135454 
742.594160  	0.134692 
744.522976  	0.133727 
746.451792  	0.133102 
748.380608  	0.132619 
750.309424  	0.131831 
752.238240  	0.131162 
754.167056  	0.130859 
756.095872  	0.130117 
758.024688  	0.129279 
759.953504  	0.128597 
761.882320  	0.128238 
763.811136  	0.127831 
765.739952  	0.127585 
767.668768  	0.126840 
769.597584  	0.125890 
771.526400  	0.125321 
773.455216  	0.125268 
775.384032  	0.125723 
777.312848  	0.126521 
779.241664  	0.127164 
781.170480  	0.127563 
783.099296  	0.126655 
785.028112  	0.124641 
786.956928  	0.122297 
788.885744  	0.120346 
790.814560  	0.118611 
792.743376  	0.117525 
794.672192  	0.116350 
796.601008  	0.115165 
798.529824  	0.113693 
800.458640  	0.111828 
802.387456  	0.110121 
804.316272  	0.108926 
806.245088  	0.107797 
808.173904  	0.107130 
810.102720  	0.106559 
812.031536  	0.106176 
813.960352  	0.106021 
815.889168  	0.105654 
817.817984  	0.105048 
819.746800  	0.104506 
821.675616  	0.103862 
823.604432  	0.103357 
825.533248  	0.102461 
827.462064  	0.101574 
829.390880  	0.100882 
831.319696  	0.099937 
833.248512  	0.098855 
835.177328  	0.097835 
837.106144  	0.096463 
839.034960  	0.095116 
840.963776  	0.093924 
842.892592  	0.092773 
844.821408  	0.091254 
846.750224  	0.089565 
848.679040  	0.088124 
850.607856  	0.086829 
852.536672  	0.085945 
854.465488  	0.085098 
856.394304  	0.083579 
858.323120  	0.082036 
860.251936  	0.080756 
862.180752  	0.079333 
864.109568  	0.077637 
866.038384  	0.076159 
867.967200  	0.074616 
869.896016  	0.072959 
871.824832  	0.071220 
873.753648  	0.069289 
875.682464  	0.066972 
877.611280  	0.063730 
879.540096  	0.061704 
881.468912  	0.062583 
883.397728  	0.063916 
885.326544  	0.065552 
887.255360  	0.067245 
889.184176  	0.068077 
891.112992  	0.067917 
893.041808  	0.068386 
894.970624  	0.068685 
896.899440  	0.067803 
898.828256  	0.066809 
900.757072  	0.066318 
902.685888  	0.065902 
904.614704  	0.065987 
906.543520  	0.066441 
908.472336  	0.067257 
910.401152  	0.068208 
912.329968  	0.069340 
914.258784  	0.070691 
916.187600  	0.071651 
918.116416  	0.072218 
920.045232  	0.072476 
921.974048  	0.072534 
923.902864  	0.072492 
925.831680  	0.072090 
927.760496  	0.071631 
929.689312  	0.071210 
931.618128  	0.071132 
933.546944  	0.070996 
935.475760  	0.070554 
937.404576  	0.070102 
939.333392  	0.069986 
941.262208  	0.070016 
943.191024  	0.070384 
945.119840  	0.071035 
947.048656  	0.072064 
948.977472  	0.073559 
950.906288  	0.075116 
952.835104  	0.076761 
954.763920  	0.078657 
956.692736  	0.080205 
958.621552  	0.081315 
960.550368  	0.081859 
962.479184  	0.081997 
964.408000  	0.081163 
966.336816  	0.079617 
968.265632  	0.077218 
970.194448  	0.074024 
972.123264  	0.070472 
974.052080  	0.066838 
975.980896  	0.063165 
977.909712  	0.059725 
979.838528  	0.056637 
981.767344  	0.053854 
983.696160  	0.051612 
985.624976  	0.049900 
987.553792  	0.048907 
989.482608  	0.048619 
991.411424  	0.048704 
993.340240  	0.049313 
995.269056  	0.050162 
997.197872  	0.050975 
999.126688  	0.051823 
1001.055504  	0.052900 
1002.984320  	0.053789 
1004.913136  	0.054529 
1006.841952  	0.055172 
1008.770768  	0.055616 
1010.699584  	0.055633 
1012.628400  	0.055283 
1014.557216  	0.054919 
1016.486032  	0.054661 
1018.414848  	0.054257 
1020.343664  	0.053699 
1022.272480  	0.052939 
1024.201296  	0.051382 
1026.130112  	0.047182 
1028.058928  	0.044364 
1029.987744  	0.045758 
1031.916560  	0.044639 
1033.845376  	0.040996 
1035.774192  	0.035618 
1037.703008  	0.030445 
1039.631824  	0.027293 
1041.560640  	0.024483 
1043.489456  	0.022604 
1045.418272  	0.022650 
1047.347088  	0.025248 
1049.275904  	0.030080 
1051.204720  	0.035785 
1053.133536  	0.042237 
1055.062352  	0.048292 
1056.991168  	0.053081 
1058.919984  	0.059556 
1060.848800  	0.065500 
1062.777616  	0.066701 
1064.706432  	0.063334 
1066.635248  	0.061311 
1068.564064  	0.064618 
1070.492880  	0.064956 
1072.421696  	0.061706 
1074.350512  	0.058561 
1076.279328  	0.056607 
1078.208144  	0.055661 
1080.136960  	0.056096 
1082.065776  	0.057684 
1083.994592  	0.059112 
1085.923408  	0.060270 
1087.852224  	0.061504 
1089.781040  	0.063162 
1091.709856  	0.065452 
1093.638672  	0.066549 
1095.567488  	0.066317 
1097.496304  	0.065419 
1099.425120  	0.064280 
1101.353936  	0.062798 
1103.282752  	0.060751 
1105.211568  	0.058767 
1107.140384  	0.056712 
1109.069200  	0.054515 
1110.998016  	0.052502 
1112.926832  	0.050434 
1114.855648  	0.048324 
1116.784464  	0.046306 
1118.713280  	0.044002 
1120.642096  	0.041820 
1122.570912  	0.039689 
1124.499728  	0.037548 
1126.428544  	0.035656 
1128.357360  	0.033854 
1130.286176  	0.032193 
1132.214992  	0.030860 
1134.143808  	0.029536 
1136.072624  	0.027987 
1138.001440  	0.026742 
1139.930256  	0.025672 
1141.859072  	0.024553 
1143.787888  	0.023382 
1145.716704  	0.022304 
1147.645520  	0.021289 
1149.574336  	0.020381 
1151.503152  	0.019608 
1153.431968  	0.019262 
1155.360784  	0.018834 
1157.289600  	0.018742 
1159.218416  	0.019052 
1161.147232  	0.019473 
1163.076048  	0.019750 
1165.004864  	0.020064 
1166.933680  	0.020343 
1168.862496  	0.020781 
1170.791312  	0.021301 
1172.720128  	0.021773 
1174.648944  	0.022448 
1176.577760  	0.023347 
1178.506576  	0.024009 
1180.435392  	0.024446 
1182.364208  	0.024835 
1184.293024  	0.025394 
1186.221840  	0.026073 
1188.150656  	0.026934 
1190.079472  	0.027979 
1192.008288  	0.029328 
1193.937104  	0.030721 
1195.865920  	0.032385 
1197.794736  	0.034295 
1199.723552  	0.036477 
1201.652368  	0.038567 
1203.581184  	0.040920 
1205.510000  	0.043313 
1207.438816  	0.045540 
1209.367632  	0.047676 
1211.296448  	0.049757 
1213.225264  	0.051571 
1215.154080  	0.053184 
1217.082896  	0.054392 
1219.011712  	0.055160 
1220.940528  	0.055750 
1222.869344  	0.056521 
1224.798160  	0.057237 
1226.726976  	0.057686 
1228.655792  	0.058198 
1230.584608  	0.058701 
1232.513424  	0.059199 
1234.442240  	0.059849 
1236.371056  	0.060310 
1238.299872  	0.059864 
1240.228688  	0.057035 
1242.157504  	0.054716 
1244.086320  	0.054156 
1246.015136  	0.052042 
1247.943952  	0.048639 
1249.872768  	0.045433 
1251.801584  	0.043359 
1253.730400  	0.041249 
1255.659216  	0.038933 
1257.588032  	0.036659 
1259.516848  	0.034705 
1261.445664  	0.032729 
1263.374480  	0.031090 
1265.303296  	0.029794 
1267.232112  	0.028783 
1269.160928  	0.027828 
1271.089744  	0.027121 
1273.018560  	0.026821 
1274.947376  	0.026721 
1276.876192  	0.026754 
1278.805008  	0.026792 
1280.733824  	0.026479 
1282.662640  	0.025836 
1284.591456  	0.024995 
1286.520272  	0.024079 
1288.449088  	0.023299 
1290.377904  	0.022782 
1292.306720  	0.022276 
1294.235536  	0.021651 
1296.164352  	0.020859 
1298.093168  	0.019705 
1300.021984  	0.018309 
1301.950800  	0.017006 
1303.879616  	0.015836 
1305.808432  	0.014645 
1307.737248  	0.013519 
1309.666064  	0.012468 
1311.594880  	0.011724 
1313.523696  	0.011213 
1315.452512  	0.010800 
1317.381328  	0.010662 
1319.310144  	0.010591 
1321.238960  	0.010526 
1323.167776  	0.010694 
1325.096592  	0.010852 
1327.025408  	0.010969 
1328.954224  	0.010909 
1330.883040  	0.010745 
1332.811856  	0.010381 
1334.740672  	0.010018 
1336.669488  	0.009885 
1338.598304  	0.009962 
1340.527120  	0.009667 
1342.455936  	0.009221 
1344.384752  	0.009164 
1346.313568  	0.009339 
1348.242384  	0.009530 
1350.171200  	0.009910 
1352.100016  	0.010416 
1354.028832  	0.011040 
1355.957648  	0.011512 
1357.886464  	0.011923 
1359.815280  	0.012458 
1361.744096  	0.013157 
1363.672912  	0.013200 
1365.601728  	0.012638 
1367.530544  	0.012015 
1369.459360  	0.010989 
1371.388176  	0.009741 
1373.316992  	0.008453 
1375.245808  	0.006479 
1377.174624  	0.004429 
1379.103440  	0.002673 
1381.032256  	0.001439 
1382.961072  	0.000980 
1384.889888  	0.001198 
1386.818704  	0.001937 
1388.747520  	0.002235 
1390.676336  	0.000928 
1392.605152  	-0.002255 
1394.533968  	-0.003048 
1396.462784  	0.000585 
1398.391600  	0.001887 
1400.320416  	0.001173 
1402.249232  	-0.000025 
1404.178048  	-0.000418 
1406.106864  	-0.000402 
1408.035680  	0.000156 
1409.964496  	0.001400 
1411.893312  	0.003117 
1413.822128  	0.004885 
1415.750944  	0.006934 
1417.679760  	0.008770 
1419.608576  	0.010170 
1421.537392  	0.010230 
1423.466208  	0.010340 
1425.395024  	0.010085 
1427.323840  	0.009654 
1429.252656  	0.009515 
1431.181472  	0.009401 
1433.110288  	0.009213 
1435.039104  	0.009532 
1436.967920  	0.009900 
1438.896736  	0.009781 
1440.825552  	0.009571 
1442.754368  	0.009661 
1444.683184  	0.009634 
1446.612000  	0.009753 
1448.540816  	0.009415 
1450.469632  	0.009153 
1452.398448  	0.009376 
1454.327264  	0.009953 
1456.256080  	0.011527 
1458.184896  	0.012699 
1460.113712  	0.012121 
1462.042528  	0.012286 
1463.971344  	0.013275 
1465.900160  	0.014373 
1467.828976  	0.015127 
1469.757792  	0.016349 
1471.686608  	0.018310 
1473.615424  	0.020405 
1475.544240  	0.021308 
1477.473056  	0.022088 
1479.401872  	0.022742 
1481.330688  	0.023534 
1483.259504  	0.023925 
1485.188320  	0.024410 
1487.117136  	0.024840 
1489.045952  	0.024983 
1490.974768  	0.023970 
1492.903584  	0.022628 
1494.832400  	0.021810 
1496.761216  	0.020934 
1498.690032  	0.019433 
1500.618848  	0.018046 
1502.547664  	0.016874 
1504.476480  	0.016540 
1506.405296  	0.017231 
1508.334112  	0.016438 
1510.262928  	0.015068 
1512.191744  	0.014303 
1514.120560  	0.013980 
1516.049376  	0.014454 
1517.978192  	0.015032 
1519.907008  	0.015870 
1521.835824  	0.017415 
1523.764640  	0.017805 
1525.693456  	0.018456 
1527.622272  	0.019075 
1529.551088  	0.019255 
1531.479904  	0.019462 
1533.408720  	0.019407 
1535.337536  	0.018411 
1537.266352  	0.017901 
1539.195168  	0.018137 
1541.123984  	0.017245 
1543.052800  	0.016037 
1544.981616  	0.014873 
1546.910432  	0.013815 
1548.839248  	0.013605 
1550.768064  	0.013664 
1552.696880  	0.013672 
1554.625696  	0.014376 
1556.554512  	0.015094 
1558.483328  	0.017051 
1560.412144  	0.017166 
1562.340960  	0.016782 
1564.269776  	0.017546 
1566.198592  	0.018897 
1568.127408  	0.020306 
1570.056224  	0.022319 
1571.985040  	0.023397 
1573.913856  	0.024573 
1575.842672  	0.025777 
1577.771488  	0.026248 
1579.700304  	0.025700 
1581.629120  	0.025322 
1583.557936  	0.025182 
1585.486752  	0.025616 
1587.415568  	0.026403 
1589.344384  	0.027704 
1591.273200  	0.029341 
1593.202016  	0.031495 
1595.130832  	0.033552 
1597.059648  	0.035539 
1598.988464  	0.037095 
1600.917280  	0.038544 
1602.846096  	0.039579 
1604.774912  	0.040220 
1606.703728  	0.040290 
1608.632544  	0.040256 
1610.561360  	0.039824 
1612.490176  	0.039478 
1614.418992  	0.039287 
1616.347808  	0.039921 
1618.276624  	0.040243 
1620.205440  	0.040861 
1622.134256  	0.042318 
1624.063072  	0.044730 
1625.991888  	0.046647 
1627.920704  	0.049383 
1629.849520  	0.052083 
1631.778336  	0.054804 
1633.707152  	0.057623 
1635.635968  	0.061883 
1637.564784  	0.064921 
1639.493600  	0.066709 
1641.422416  	0.068573 
1643.351232  	0.070605 
1645.280048  	0.072620 
1647.208864  	0.074692 
1649.137680  	0.074667 
1651.066496  	0.074754 
1652.995312  	0.075875 
1654.924128  	0.075406 
1656.852944  	0.073757 
1658.781760  	0.072994 
1660.710576  	0.072613 
1662.639392  	0.072320 
1664.568208  	0.071319 
1666.497024  	0.070596 
1668.425840  	0.070217 
1670.354656  	0.069736 
1672.283472  	0.068695 
1674.212288  	0.068220 
1676.141104  	0.067938 
1678.069920  	0.067640 
1679.998736  	0.067920 
1681.927552  	0.068610 
1683.856368  	0.069835 
1685.785184  	0.070185 
1687.714000  	0.069526 
1689.642816  	0.069422 
1691.571632  	0.068923 
1693.500448  	0.068777 
1695.429264  	0.068949 
1697.358080  	0.068507 
1699.286896  	0.067620 
1701.215712  	0.066044 
1703.144528  	0.064093 
1705.073344  	0.062513 
1707.002160  	0.060202 
1708.930976  	0.057730 
1710.859792  	0.055255 
1712.788608  	0.052719 
1714.717424  	0.050107 
1716.646240  	0.046951 
1718.575056  	0.042667 
1720.503872  	0.038461 
1722.432688  	0.035007 
1724.361504  	0.031322 
1726.290320  	0.028226 
1728.219136  	0.025698 
1730.147952  	0.023492 
1732.076768  	0.021407 
1734.005584  	0.019742 
1735.934400  	0.016976 
1737.863216  	0.015515 
1739.792032  	0.014292 
1741.720848  	0.013054 
1743.649664  	0.011871 
1745.578480  	0.010886 
1747.507296  	0.010263 
1749.436112  	0.009748 
1751.364928  	0.008849 
1753.293744  	0.008019 
1755.222560  	0.007483 
1757.151376  	0.007350 
1759.080192  	0.006809 
1761.009008  	0.006705 
1762.937824  	0.006380 
1764.866640  	0.006121 
1766.795456  	0.006107 
1768.724272  	0.006113 
1770.653088  	0.005993 
1772.581904  	0.006250 
1774.510720  	0.005661 
1776.439536  	0.005333 
1778.368352  	0.005177 
1780.297168  	0.005318 
1782.225984  	0.005143 
1784.154800  	0.005075 
1786.083616  	0.004797 
1788.012432  	0.004710 
1789.941248  	0.004942 
1791.870064  	0.005344 
1793.798880  	0.004938 
1795.727696  	0.004772 
1797.656512  	0.004710 
1799.585328  	0.004765 
1801.514144  	0.004554 
1803.442960  	0.004271 
1805.371776  	0.004066 
1807.300592  	0.004141 
1809.229408  	0.004090 
1811.158224  	0.004260 
1813.087040  	0.004069 
1815.015856  	0.003820 
1816.944672  	0.003782 
1818.873488  	0.004043 
1820.802304  	0.004046 
1822.731120  	0.004124 
1824.659936  	0.004164 
1826.588752  	0.004219 
1828.517568  	0.004386 
1830.446384  	0.004398 
1832.375200  	0.003835 
1834.304016  	0.003797 
1836.232832  	0.003854 
1838.161648  	0.003870 
1840.090464  	0.003660 
1842.019280  	0.003739 
1843.948096  	0.003974 
1845.876912  	0.004124 
1847.805728  	0.003951 
1849.734544  	0.003803 
1851.663360  	0.003513 
1853.592176  	0.003723 
1855.520992  	0.003599 
1857.449808  	0.003511 
1859.378624  	0.003486 
1861.307440  	0.003698 
1863.236256  	0.003499 
1865.165072  	0.003647 
1867.093888  	0.004084 
1869.022704  	0.004176 
1870.951520  	0.003608 
1872.880336  	0.003377 
1874.809152  	0.003307 
1876.737968  	0.003320 
1878.666784  	0.003059 
1880.595600  	0.003105 
1882.524416  	0.003313 
1884.453232  	0.003780 
1886.382048  	0.003796 
1888.310864  	0.003878 
1890.239680  	0.003534 
1892.168496  	0.003248 
1894.097312  	0.003191 
1896.026128  	0.003462 
1897.954944  	0.003365 
1899.883760  	0.003169 
1901.812576  	0.002928 
1903.741392  	0.003132 
1905.670208  	0.003086 
1907.599024  	0.003111 
1909.527840  	0.003151 
1911.456656  	0.003027 
1913.385472  	0.002371 
1915.314288  	0.002470 
1917.243104  	0.002787 
1919.171920  	0.002832 
1921.100736  	0.002391 
1923.029552  	0.002507 
1924.958368  	0.002469 
1926.887184  	0.002437 
1928.816000  	0.002137 
1930.744816  	0.002883 
1932.673632  	0.003034 
1934.602448  	0.002597 
1936.531264  	0.002032 
1938.460080  	0.002160 
1940.388896  	0.002693 
1942.317712  	0.002865 
1944.246528  	0.003297 
1946.175344  	0.003235 
1948.104160  	0.002532 
1950.032976  	0.002737 
1951.961792  	0.002989 
1953.890608  	0.002678 
1955.819424  	0.001837 
1957.748240  	0.002465 
1959.677056  	0.002278 
1961.605872  	0.002008 
1963.534688  	0.002240 
1965.463504  	0.002619 
1967.392320  	0.003039 
1969.321136  	0.003742 
1971.249952  	0.003040 
1973.178768  	0.003504 
1975.107584  	0.003214 
1977.036400  	0.004278 
1978.965216  	0.004861 
1980.894032  	0.004942 
1982.822848  	0.004003 
1984.751664  	0.003656 
1986.680480  	0.004446 
1988.609296  	0.004897 
1990.538112  	0.004879 
1992.466928  	0.004895 
1994.395744  	0.003468 
1996.324560  	0.003401 
1998.253376  	0.003123 
2000.182192  	0.002993 
2002.111008  	0.003370 
2004.039824  	0.002861 
2005.968640  	0.001148 
2007.897456  	0.001473 
2009.826272  	0.002280 
2011.755088  	0.003654 
2013.683904  	0.004002 
2015.612720  	0.004072 
2017.541536  	0.003210 
2019.470352  	0.002456 
2021.399168  	0.002299 
2023.327984  	0.003175 
2025.256800  	0.002657 
2027.185616  	0.002115 
2029.114432  	0.002659 
2031.043248  	0.003398 
2032.972064  	0.002558 
2034.900880  	0.002938 
2036.829696  	0.003688 
2038.758512  	0.004021 
2040.687328  	0.004338 
2042.616144  	0.003853 
2044.544960  	0.002908 
2046.473776  	0.002385 
2048.402592  	0.003336 
2050.331408  	0.005414 
2052.260224  	0.004487 
2054.189040  	0.003041 
2056.117856  	0.002580 
2058.046672  	0.003079 
2059.975488  	0.003703 
2061.904304  	0.003612 
2063.833120  	0.003190 
2065.761936  	0.003431 
2067.690752  	0.003416 
2069.619568  	0.003299 
2071.548384  	0.003455 
2073.477200  	0.003996 
2075.406016  	0.003669 
2077.334832  	0.003299 
2079.263648  	0.003182 
2081.192464  	0.003144 
2083.121280  	0.002746 
2085.050096  	0.002974 
2086.978912  	0.003007 
2088.907728  	0.002975 
2090.836544  	0.002408 
2092.765360  	0.001884 
2094.694176  	0.002005 
2096.622992  	0.002545 
2098.551808  	0.002634 
2100.480624  	0.002525 
2102.409440  	0.002478 
2104.338256  	0.002218 
2106.267072  	0.002205 
2108.195888  	0.002692 
2110.124704  	0.002985 
2112.053520  	0.002931 
2113.982336  	0.002465 
2115.911152  	0.002284 
2117.839968  	0.002719 
2119.768784  	0.003107 
2121.697600  	0.002875 
2123.626416  	0.002752 
2125.555232  	0.002299 
2127.484048  	0.001868 
2129.412864  	0.001284 
2131.341680  	0.000877 
2133.270496  	0.001464 
2135.199312  	0.001889 
2137.128128  	0.001250 
2139.056944  	0.001937 
2140.985760  	0.002130 
2142.914576  	0.002345 
2144.843392  	0.001987 
2146.772208  	0.002098 
2148.701024  	0.001692 
2150.629840  	0.001740 
2152.558656  	0.001565 
2154.487472  	0.001838 
2156.416288  	0.001904 
2158.345104  	0.001892 
2160.273920  	0.003456 
2162.202736  	0.003768 
2164.131552  	0.002798 
2166.060368  	0.003272 
2167.989184  	0.003757 
2169.918000  	0.003416 
2171.846816  	0.002791 
2173.775632  	0.002784 
2175.704448  	0.003489 
2177.633264  	0.003367 
2179.562080  	0.002562 
2181.490896  	0.002735 
2183.419712  	0.001692 
2185.348528  	0.002381 
2187.277344  	0.003334 
2189.206160  	0.002433 
2191.134976  	0.002511 
2193.063792  	0.003537 
2194.992608  	0.003879 
2196.921424  	0.003531 
2198.850240  	0.002332 
2200.779056  	0.002497 
2202.707872  	0.003220 
2204.636688  	0.003214 
2206.565504  	0.003087 
2208.494320  	0.003366 
2210.423136  	0.003285 
2212.351952  	0.002869 
2214.280768  	0.002977 
2216.209584  	0.003424 
2218.138400  	0.003100 
2220.067216  	0.003245 
2221.996032  	0.003196 
2223.924848  	0.003542 
2225.853664  	0.003560 
2227.782480  	0.002933 
2229.711296  	0.003197 
2231.640112  	0.003546 
2233.568928  	0.003314 
2235.497744  	0.002968 
2237.426560  	0.003128 
2239.355376  	0.003073 
2241.284192  	0.002729 
2243.213008  	0.002936 
2245.141824  	0.003306 
2247.070640  	0.003361 
2248.999456  	0.003168 
2250.928272  	0.003221 
2252.857088  	0.003380 
2254.785904  	0.003292 
2256.714720  	0.003285 
2258.643536  	0.003184 
2260.572352  	0.002939 
2262.501168  	0.003190 
2264.429984  	0.003382 
2266.358800  	0.003465 
2268.287616  	0.003725 
2270.216432  	0.003745 
2272.145248  	0.003849 
2274.074064  	0.003689 
2276.002880  	0.003154 
2277.931696  	0.003202 
2279.860512  	0.003596 
2281.789328  	0.004205 
2283.718144  	0.004275 
2285.646960  	0.004065 
2287.575776  	0.004115 
2289.504592  	0.004130 
2291.433408  	0.003853 
2293.362224  	0.003748 
2295.291040  	0.003558 
2297.219856  	0.003503 
2299.148672  	0.003297 
2301.077488  	0.003132 
2303.006304  	0.003324 
2304.935120  	0.003275 
2306.863936  	0.002667 
2308.792752  	0.002226 
2310.721568  	0.002199 
2312.650384  	0.002376 
2314.579200  	0.002196 
2316.508016  	0.001962 
2318.436832  	0.001542 
2320.365648  	0.001006 
2322.294464  	0.001001 
2324.223280  	0.001160 
2326.152096  	0.000255 
2328.080912  	-0.000553 
2330.009728  	-0.001064 
2331.938544  	-0.001511 
2333.867360  	-0.001493 
2335.796176  	-0.001433 
2337.724992  	-0.001743 
2339.653808  	-0.001901 
2341.582624  	-0.001830 
2343.511440  	-0.001394 
2345.440256  	-0.000839 
2347.369072  	-0.000019 
2349.297888  	0.000200 
2351.226704  	-0.000562 
2353.155520  	-0.001585 
2355.084336  	-0.002102 
2357.013152  	-0.003158 
2358.941968  	-0.004108 
2360.870784  	-0.004513 
2362.799600  	-0.004735 
2364.728416  	-0.004411 
2366.657232  	-0.003549 
2368.586048  	-0.002252 
2370.514864  	-0.001047 
2372.443680  	-0.000584 
2374.372496  	-0.000009 
2376.301312  	0.000732 
2378.230128  	0.001455 
2380.158944  	0.002101 
2382.087760  	0.002626 
2384.016576  	0.003142 
2385.945392  	0.003448 
2387.874208  	0.003631 
2389.803024  	0.003619 
2391.731840  	0.003535 
2393.660656  	0.003430 
2395.589472  	0.003333 
2397.518288  	0.003412 
2399.447104  	0.003487 
2401.375920  	0.003626 
2403.304736  	0.003696 
2405.233552  	0.003536 
2407.162368  	0.003447 
2409.091184  	0.003466 
2411.020000  	0.003555 
2412.948816  	0.003640 
2414.877632  	0.003551 
2416.806448  	0.003586 
2418.735264  	0.003859 
2420.664080  	0.004104 
2422.592896  	0.004055 
2424.521712  	0.004042 
2426.450528  	0.004006 
2428.379344  	0.003933 
2430.308160  	0.003817 
2432.236976  	0.003798 
2434.165792  	0.003914 
2436.094608  	0.003992 
2438.023424  	0.003977 
2439.952240  	0.003954 
2441.881056  	0.004114 
2443.809872  	0.004306 
2445.738688  	0.004211 
2447.667504  	0.004025 
2449.596320  	0.004175 
2451.525136  	0.004146 
2453.453952  	0.004038 
2455.382768  	0.004210 
2457.311584  	0.004246 
2459.240400  	0.004190 
2461.169216  	0.004081 
2463.098032  	0.004183 
2465.026848  	0.004377 
2466.955664  	0.004315 
2468.884480  	0.004244 
2470.813296  	0.004290 
2472.742112  	0.004313 
2474.670928  	0.004568 
2476.599744  	0.004598 
2478.528560  	0.004295 
2480.457376  	0.004115 
2482.386192  	0.004376 
2484.315008  	0.004324 
2486.243824  	0.004242 
2488.172640  	0.004447 
2490.101456  	0.004587 
2492.030272  	0.004361 
2493.959088  	0.004206 
2495.887904  	0.004441 
2497.816720  	0.004432 
2499.745536  	0.004242 
2501.674352  	0.004162 
2503.603168  	0.004369 
2505.531984  	0.004733 
2507.460800  	0.004865 
2509.389616  	0.004869 
2511.318432  	0.004592 
2513.247248  	0.004482 
2515.176064  	0.004601 
2517.104880  	0.004927 
2519.033696  	0.005043 
2520.962512  	0.004781 
2522.891328  	0.004642 
2524.820144  	0.004773 
2526.748960  	0.004722 
2528.677776  	0.004617 
2530.606592  	0.004591 
2532.535408  	0.004434 
2534.464224  	0.004476 
2536.393040  	0.004616 
2538.321856  	0.004485 
2540.250672  	0.004611 
2542.179488  	0.004887 
2544.108304  	0.004938 
2546.037120  	0.004877 
2547.965936  	0.004856 
2549.894752  	0.004884 
2551.823568  	0.004990 
2553.752384  	0.004971 
2555.681200  	0.005271 
2557.610016  	0.005526 
2559.538832  	0.005524 
2561.467648  	0.005391 
2563.396464  	0.005245 
2565.325280  	0.005265 
2567.254096  	0.005566 
2569.182912  	0.005555 
2571.111728  	0.005486 
2573.040544  	0.005414 
2574.969360  	0.005506 
2576.898176  	0.005543 
2578.826992  	0.005558 
2580.755808  	0.005720 
2582.684624  	0.005619 
2584.613440  	0.005545 
2586.542256  	0.005715 
2588.471072  	0.005861 
2590.399888  	0.006013 
2592.328704  	0.006024 
2594.257520  	0.005896 
2596.186336  	0.005842 
2598.115152  	0.005900 
2600.043968  	0.005979 
2601.972784  	0.006114 
2603.901600  	0.006221 
2605.830416  	0.006239 
2607.759232  	0.006316 
2609.688048  	0.006450 
2611.616864  	0.006517 
2613.545680  	0.006481 
2615.474496  	0.006445 
2617.403312  	0.006407 
2619.332128  	0.006402 
2621.260944  	0.006500 
2623.189760  	0.006496 
2625.118576  	0.006604 
2627.047392  	0.006635 
2628.976208  	0.006610 
2630.905024  	0.006667 
2632.833840  	0.006748 
2634.762656  	0.006837 
2636.691472  	0.006971 
2638.620288  	0.006981 
2640.549104  	0.006997 
2642.477920  	0.006927 
2644.406736  	0.006993 
2646.335552  	0.007098 
2648.264368  	0.007156 
2650.193184  	0.007154 
2652.122000  	0.007076 
2654.050816  	0.007153 
2655.979632  	0.007246 
2657.908448  	0.007351 
2659.837264  	0.007390 
2661.766080  	0.007328 
2663.694896  	0.007147 
2665.623712  	0.006985 
2667.552528  	0.007051 
2669.481344  	0.007162 
2671.410160  	0.007138 
2673.338976  	0.007217 
2675.267792  	0.007476 
2677.196608  	0.007563 
2679.125424  	0.007452 
2681.054240  	0.007385 
2682.983056  	0.007303 
2684.911872  	0.007315 
2686.840688  	0.007388 
2688.769504  	0.007453 
2690.698320  	0.007479 
2692.627136  	0.007426 
2694.555952  	0.007481 
2696.484768  	0.007508 
2698.413584  	0.007540 
2700.342400  	0.007551 
2702.271216  	0.007559 
2704.200032  	0.007636 
2706.128848  	0.007694 
2708.057664  	0.007613 
2709.986480  	0.007612 
2711.915296  	0.007670 
2713.844112  	0.007716 
2715.772928  	0.007691 
2717.701744  	0.007622 
2719.630560  	0.007596 
2721.559376  	0.007613 
2723.488192  	0.007631 
2725.417008  	0.007620 
2727.345824  	0.007566 
2729.274640  	0.007685 
2731.203456  	0.007839 
2733.132272  	0.007785 
2735.061088  	0.007688 
2736.989904  	0.007664 
2738.918720  	0.007697 
2740.847536  	0.007711 
2742.776352  	0.007765 
2744.705168  	0.007789 
2746.633984  	0.007806 
2748.562800  	0.007707 
2750.491616  	0.007691 
2752.420432  	0.007854 
2754.349248  	0.007881 
2756.278064  	0.007852 
2758.206880  	0.007912 
2760.135696  	0.007871 
2762.064512  	0.007785 
2763.993328  	0.007881 
2765.922144  	0.007964 
2767.850960  	0.007917 
2769.779776  	0.007989 
2771.708592  	0.007963 
2773.637408  	0.007894 
2775.566224  	0.007906 
2777.495040  	0.007908 
2779.423856  	0.007922 
2781.352672  	0.007941 
2783.281488  	0.007974 
2785.210304  	0.007923 
2787.139120  	0.007884 
2789.067936  	0.007762 
2790.996752  	0.007637 
2792.925568  	0.007578 
2794.854384  	0.007538 
2796.783200  	0.007541 
2798.712016  	0.007515 
2800.640832  	0.007420 
2802.569648  	0.007347 
2804.498464  	0.007277 
2806.427280  	0.007240 
2808.356096  	0.007227 
2810.284912  	0.007145 
2812.213728  	0.007088 
2814.142544  	0.007010 
2816.071360  	0.006907 
2818.000176  	0.006680 
2819.928992  	0.006481 
2821.857808  	0.006462 
2823.786624  	0.006405 
2825.715440  	0.006214 
2827.644256  	0.006006 
2829.573072  	0.005803 
2831.501888  	0.005552 
2833.430704  	0.005273 
2835.359520  	0.004979 
2837.288336  	0.004612 
2839.217152  	0.004407 
2841.145968  	0.004150 
2843.074784  	0.003853 
2845.003600  	0.003695 
2846.932416  	0.003630 
2848.861232  	0.003563 
2850.790048  	0.003094 
2852.718864  	0.002150 
2854.647680  	0.001006 
2856.576496  	-0.000240 
2858.505312  	-0.001522 
2860.434128  	-0.002668 
2862.362944  	-0.003867 
2864.291760  	-0.005017 
2866.220576  	-0.005961 
2868.149392  	-0.006893 
2870.078208  	-0.007749 
2872.007024  	-0.008189 
2873.935840  	-0.008590 
2875.864656  	-0.009214 
2877.793472  	-0.009911 
2879.722288  	-0.010631 
2881.651104  	-0.011428 
2883.579920  	-0.011997 
2885.508736  	-0.012113 
2887.437552  	-0.011901 
2889.366368  	-0.011918 
2891.295184  	-0.012386 
2893.224000  	-0.012705 
2895.152816  	-0.012707 
2897.081632  	-0.013023 
2899.010448  	-0.014691 
2900.939264  	-0.016208 
2902.868080  	-0.014745 
2904.796896  	-0.013045 
2906.725712  	-0.012203 
2908.654528  	-0.011507 
2910.583344  	-0.011021 
2912.512160  	-0.010091 
2914.440976  	-0.008484 
2916.369792  	-0.007282 
2918.298608  	-0.006885 
2920.227424  	-0.006954 
2922.156240  	-0.007044 
2924.085056  	-0.007014 
2926.013872  	-0.006782 
2927.942688  	-0.006410 
2929.871504  	-0.006046 
2931.800320  	-0.005602 
2933.729136  	-0.005291 
2935.657952  	-0.005218 
2937.586768  	-0.005046 
2939.515584  	-0.004928 
2941.444400  	-0.005033 
2943.373216  	-0.005017 
2945.302032  	-0.004752 
2947.230848  	-0.004612 
2949.159664  	-0.005071 
2951.088480  	-0.005856 
2953.017296  	-0.006689 
2954.946112  	-0.007505 
2956.874928  	-0.008502 
2958.803744  	-0.009761 
2960.732560  	-0.011009 
2962.661376  	-0.012573 
2964.590192  	-0.014616 
2966.519008  	-0.017094 
2968.447824  	-0.019397 
2970.376640  	-0.021053 
2972.305456  	-0.021898 
2974.234272  	-0.021852 
2976.163088  	-0.021387 
2978.091904  	-0.020400 
2980.020720  	-0.019304 
2981.949536  	-0.018072 
2983.878352  	-0.017355 
2985.807168  	-0.017555 
2987.735984  	-0.017685 
2989.664800  	-0.016398 
2991.593616  	-0.012338 
2993.522432  	-0.009892 
2995.451248  	-0.009160 
2997.380064  	-0.008048 
2999.308880  	-0.006517 
3001.237696  	-0.004878 
3003.166512  	-0.003335 
3005.095328  	-0.001904 
3007.024144  	-0.000404 
3008.952960  	0.001198 
3010.881776  	0.002727 
3012.810592  	0.004147 
3014.739408  	0.005335 
3016.668224  	0.006480 
3018.597040  	0.007660 
3020.525856  	0.008846 
3022.454672  	0.009864 
3024.383488  	0.010785 
3026.312304  	0.011712 
3028.241120  	0.012597 
3030.169936  	0.013470 
3032.098752  	0.014111 
3034.027568  	0.014682 
3035.956384  	0.015308 
3037.885200  	0.015857 
3039.814016  	0.016278 
3041.742832  	0.016698 
3043.671648  	0.017178 
3045.600464  	0.017469 
3047.529280  	0.017599 
3049.458096  	0.017991 
3051.386912  	0.018256 
3053.315728  	0.018353 
3055.244544  	0.018560 
3057.173360  	0.018870 
3059.102176  	0.019015 
3061.030992  	0.019051 
3062.959808  	0.019351 
3064.888624  	0.019636 
3066.817440  	0.019872 
3068.746256  	0.020154 
3070.675072  	0.020372 
3072.603888  	0.020382 
3074.532704  	0.020427 
3076.461520  	0.020700 
3078.390336  	0.020758 
3080.319152  	0.020796 
3082.247968  	0.021006 
3084.176784  	0.021177 
3086.105600  	0.021423 
3088.034416  	0.021653 
3089.963232  	0.021762 
3091.892048  	0.021875 
3093.820864  	0.022037 
3095.749680  	0.022381 
3097.678496  	0.022556 
3099.607312  	0.022640 
3101.536128  	0.022820 
3103.464944  	0.023049 
3105.393760  	0.023223 
3107.322576  	0.023468 
3109.251392  	0.023682 
3111.180208  	0.023661 
3113.109024  	0.023661 
3115.037840  	0.024051 
3116.966656  	0.024338 
3118.895472  	0.024404 
3120.824288  	0.024265 
3122.753104  	0.024164 
3124.681920  	0.024427 
3126.610736  	0.024666 
3128.539552  	0.024683 
3130.468368  	0.024732 
3132.397184  	0.024905 
3134.326000  	0.025113 
3136.254816  	0.025271 
3138.183632  	0.025414 
3140.112448  	0.025425 
3142.041264  	0.025477 
3143.970080  	0.025507 
3145.898896  	0.025597 
3147.827712  	0.025713 
3149.756528  	0.025721 
3151.685344  	0.025871 
3153.614160  	0.026009 
3155.542976  	0.026096 
3157.471792  	0.026305 
3159.400608  	0.026521 
3161.329424  	0.026550 
3163.258240  	0.026526 
3165.187056  	0.026652 
3167.115872  	0.026783 
3169.044688  	0.026934 
3170.973504  	0.027013 
3172.902320  	0.027056 
3174.831136  	0.027151 
3176.759952  	0.027296 
3178.688768  	0.027272 
3180.617584  	0.027310 
3182.546400  	0.027344 
3184.475216  	0.027288 
3186.404032  	0.027102 
3188.332848  	0.026971 
3190.261664  	0.027065 
3192.190480  	0.026981 
3194.119296  	0.027015 
3196.048112  	0.027103 
3197.976928  	0.027074 
3199.905744  	0.026968 
3201.834560  	0.026702 
3203.763376  	0.026451 
3205.692192  	0.026464 
3207.621008  	0.026523 
3209.549824  	0.026399 
3211.478640  	0.026279 
3213.407456  	0.026170 
3215.336272  	0.026110 
3217.265088  	0.026058 
3219.193904  	0.025846 
3221.122720  	0.025531 
3223.051536  	0.025235 
3224.980352  	0.024910 
3226.909168  	0.024689 
3228.837984  	0.024623 
3230.766800  	0.024397 
3232.695616  	0.024144 
3234.624432  	0.024105 
3236.553248  	0.024095 
3238.482064  	0.024067 
3240.410880  	0.023959 
3242.339696  	0.023899 
3244.268512  	0.023956 
3246.197328  	0.023739 
3248.126144  	0.023472 
3250.054960  	0.023445 
3251.983776  	0.023480 
3253.912592  	0.023662 
3255.841408  	0.023736 
3257.770224  	0.023738 
3259.699040  	0.023849 
3261.627856  	0.024065 
3263.556672  	0.024034 
3265.485488  	0.023972 
3267.414304  	0.023852 
3269.343120  	0.023853 
3271.271936  	0.023940 
3273.200752  	0.023966 
3275.129568  	0.024032 
3277.058384  	0.024183 
3278.987200  	0.024088 
3280.916016  	0.024117 
3282.844832  	0.024320 
3284.773648  	0.024343 
3286.702464  	0.024404 
3288.631280  	0.024458 
3290.560096  	0.024340 
3292.488912  	0.024389 
3294.417728  	0.024474 
3296.346544  	0.024734 
3298.275360  	0.024934 
3300.204176  	0.024841 
3302.132992  	0.024818 
3304.061808  	0.025109 
3305.990624  	0.025420 
3307.919440  	0.025708 
3309.848256  	0.025896 
3311.777072  	0.025943 
3313.705888  	0.026044 
3315.634704  	0.026260 
3317.563520  	0.026471 
3319.492336  	0.026679 
3321.421152  	0.026721 
3323.349968  	0.026725 
3325.278784  	0.026820 
3327.207600  	0.027027 
3329.136416  	0.027256 
3331.065232  	0.027575 
3332.994048  	0.027535 
3334.922864  	0.027401 
3336.851680  	0.027398 
3338.780496  	0.027473 
3340.709312  	0.027558 
3342.638128  	0.027733 
3344.566944  	0.027753 
3346.495760  	0.027613 
3348.424576  	0.027430 
3350.353392  	0.027342 
3352.282208  	0.027384 
3354.211024  	0.027403 
3356.139840  	0.027373 
3358.068656  	0.027317 
3359.997472  	0.027377 
3361.926288  	0.027277 
3363.855104  	0.026963 
3365.783920  	0.026864 
3367.712736  	0.026944 
3369.641552  	0.026963 
3371.570368  	0.026794 
3373.499184  	0.026470 
3375.428000  	0.026379 
3377.356816  	0.026397 
3379.285632  	0.026325 
3381.214448  	0.026383 
3383.143264  	0.026398 
3385.072080  	0.026230 
3387.000896  	0.026076 
3388.929712  	0.025970 
3390.858528  	0.025924 
3392.787344  	0.026040 
3394.716160  	0.026033 
3396.644976  	0.025948 
3398.573792  	0.025712 
3400.502608  	0.025506 
3402.431424  	0.025385 
3404.360240  	0.025235 
3406.289056  	0.025106 
3408.217872  	0.025193 
3410.146688  	0.025115 
3412.075504  	0.024843 
3414.004320  	0.024676 
3415.933136  	0.024698 
3417.861952  	0.024779 
3419.790768  	0.025000 
3421.719584  	0.025069 
3423.648400  	0.024742 
3425.577216  	0.024494 
3427.506032  	0.024409 
3429.434848  	0.024210 
3431.363664  	0.024220 
3433.292480  	0.024184 
3435.221296  	0.024174 
3437.150112  	0.024274 
3439.078928  	0.024073 
3441.007744  	0.023960 
3442.936560  	0.024052 
3444.865376  	0.023854 
3446.794192  	0.023653 
3448.723008  	0.023488 
3450.651824  	0.023377 
3452.580640  	0.023334 
3454.509456  	0.023214 
3456.438272  	0.023123 
3458.367088  	0.023019 
3460.295904  	0.022737 
3462.224720  	0.022496 
3464.153536  	0.022241 
3466.082352  	0.022110 
3468.011168  	0.021940 
3469.939984  	0.021627 
3471.868800  	0.021409 
3473.797616  	0.021171 
3475.726432  	0.021108 
3477.655248  	0.020960 
3479.584064  	0.020765 
3481.512880  	0.020521 
3483.441696  	0.020336 
3485.370512  	0.020118 
3487.299328  	0.019769 
3489.228144  	0.019436 
3491.156960  	0.019275 
3493.085776  	0.019187 
3495.014592  	0.019058 
3496.943408  	0.019005 
3498.872224  	0.018756 
3500.801040  	0.018299 
3502.729856  	0.018105 
3504.658672  	0.017970 
3506.587488  	0.017651 
3508.516304  	0.017562 
3510.445120  	0.017400 
3512.373936  	0.017073 
3514.302752  	0.017044 
3516.231568  	0.017078 
3518.160384  	0.016920 
3520.089200  	0.016802 
3522.018016  	0.016692 
3523.946832  	0.016455 
3525.875648  	0.016131 
3527.804464  	0.016003 
3529.733280  	0.015874 
3531.662096  	0.015746 
3533.590912  	0.015704 
3535.519728  	0.015829 
3537.448544  	0.015631 
3539.377360  	0.015371 
3541.306176  	0.015298 
3543.234992  	0.015037 
3545.163808  	0.014948 
3547.092624  	0.014875 
3549.021440  	0.014459 
3550.950256  	0.014265 
3552.879072  	0.014029 
3554.807888  	0.013779 
3556.736704  	0.013661 
3558.665520  	0.013792 
3560.594336  	0.013812 
3562.523152  	0.013619 
3564.451968  	0.013654 
3566.380784  	0.013868 
3568.309600  	0.013515 
3570.238416  	0.012672 
3572.167232  	0.012222 
3574.096048  	0.012116 
3576.024864  	0.011997 
3577.953680  	0.011769 
3579.882496  	0.011685 
3581.811312  	0.011666 
3583.740128  	0.011441 
3585.668944  	0.011487 
3587.597760  	0.011628 
3589.526576  	0.010993 
3591.455392  	0.010392 
3593.384208  	0.010437 
3595.313024  	0.010187 
3597.241840  	0.009603 
3599.170656  	0.009576 
3601.099472  	0.009639 
3603.028288  	0.009124 
3604.957104  	0.008849 
3606.885920  	0.008816 
3608.814736  	0.008511 
3610.743552  	0.007987 
3612.672368  	0.007766 
3614.601184  	0.007647 
3616.530000  	0.007366 
3618.458816  	0.007131 
3620.387632  	0.006714 
3622.316448  	0.005908 
3624.245264  	0.005229 
3626.174080  	0.005076 
3628.102896  	0.005025 
3630.031712  	0.004438 
3631.960528  	0.003733 
3633.889344  	0.003179 
3635.818160  	0.002813 
3637.746976  	0.002569 
3639.675792  	0.002051 
3641.604608  	0.001417 
3643.533424  	0.000955 
3645.462240  	0.000467 
3647.391056  	0.000569 
3649.319872  	0.000255 
3651.248688  	-0.000933 
3653.177504  	-0.002059 
3655.106320  	-0.002599 
3657.035136  	-0.003316 
3658.963952  	-0.004135 
3660.892768  	-0.004503 
3662.821584  	-0.004745 
3664.750400  	-0.004914 
3666.679216  	-0.004846 
3668.608032  	-0.004281 
3670.536848  	-0.004241 
3672.465664  	-0.004847 
3674.394480  	-0.005329 
3676.323296  	-0.005345 
3678.252112  	-0.004380 
3680.180928  	-0.004032 
3682.109744  	-0.004621 
3684.038560  	-0.005076 
3685.967376  	-0.004724 
3687.896192  	-0.004287 
3689.825008  	-0.003861 
3691.753824  	-0.003877 
3693.682640  	-0.004051 
3695.611456  	-0.003878 
3697.540272  	-0.003219 
3699.469088  	-0.002699 
3701.397904  	-0.002259 
3703.326720  	-0.001549 
3705.255536  	-0.001178 
3707.184352  	-0.000763 
3709.113168  	-0.000048 
3711.041984  	0.000790 
3712.970800  	0.001217 
3714.899616  	0.000880 
3716.828432  	0.000358 
3718.757248  	0.000316 
3720.686064  	0.000271 
3722.614880  	0.000422 
3724.543696  	0.000682 
3726.472512  	0.000745 
3728.401328  	0.000631 
3730.330144  	0.000747 
3732.258960  	0.001212 
3734.187776  	0.001941 
3736.116592  	0.001924 
3738.045408  	0.001383 
3739.974224  	0.001156 
3741.903040  	0.001364 
3743.831856  	0.001936 
3745.760672  	0.002113 
3747.689488  	0.001815 
3749.618304  	0.002057 
3751.547120  	0.001858 
3753.475936  	0.001430 
3755.404752  	0.001209 
3757.333568  	0.001281 
3759.262384  	0.001359 
3761.191200  	0.001135 
3763.120016  	0.001150 
3765.048832  	0.001436 
3766.977648  	0.001348 
3768.906464  	0.001343 
3770.835280  	0.001427 
3772.764096  	0.000949 
3774.692912  	0.000724 
3776.621728  	0.000817 
3778.550544  	0.001185 
3780.479360  	0.001275 
3782.408176  	0.001109 
3784.336992  	0.001059 
3786.265808  	0.000834 
3788.194624  	0.000723 
3790.123440  	0.000759 
3792.052256  	0.000807 
3793.981072  	0.000958 
3795.909888  	0.001276 
3797.838704  	0.001365 
3799.767520  	0.001260 
3801.696336  	0.001418 
3803.625152  	0.001083 
3805.553968  	0.000904 
3807.482784  	0.001181 
3809.411600  	0.001159 
3811.340416  	0.000898 
3813.269232  	0.000896 
3815.198048  	0.001231 
3817.126864  	0.001394 
3819.055680  	0.001443 
3820.984496  	0.001567 
3822.913312  	0.001206 
3824.842128  	0.000903 
3826.770944  	0.001035 
3828.699760  	0.001030 
3830.628576  	0.000850 
3832.557392  	0.000888 
3834.486208  	0.001037 
3836.415024  	0.001299 
3838.343840  	0.001414 
3840.272656  	0.001433 
3842.201472  	0.001184 
3844.130288  	0.000982 
3846.059104  	0.000864 
3847.987920  	0.000850 
3849.916736  	0.001032 
3851.845552  	0.001502 
3853.774368  	0.002064 
3855.703184  	0.001633 
3857.632000  	0.001017 
3859.560816  	0.000927 
3861.489632  	0.001173 
3863.418448  	0.001302 
3865.347264  	0.001355 
3867.276080  	0.001131 
3869.204896  	0.001065 
3871.133712  	0.001378 
3873.062528  	0.001240 
3874.991344  	0.001020 
3876.920160  	0.000675 
3878.848976  	0.000783 
3880.777792  	0.001002 
3882.706608  	0.001080 
3884.635424  	0.001155 
3886.564240  	0.001074 
3888.493056  	0.000783 
3890.421872  	0.000885 
3892.350688  	0.001090 
3894.279504  	0.000798 
3896.208320  	0.000521 
3898.137136  	0.000617 
3900.065952  	0.000996 
3901.994768  	0.001356 
3903.923584  	0.001471 
3905.852400  	0.001182 
3907.781216  	0.000785 
3909.710032  	0.000472 
3911.638848  	0.000422 
3913.567664  	0.000683 
3915.496480  	0.000873 
3917.425296  	0.001135 
3919.354112  	0.001148 
3921.282928  	0.000981 
3923.211744  	0.001003 
3925.140560  	0.001072 
3927.069376  	0.000968 
3928.998192  	0.000997 
3930.927008  	0.001116 
3932.855824  	0.001196 
3934.784640  	0.001140 
3936.713456  	0.001032 
3938.642272  	0.000835 
3940.571088  	0.000956 
3942.499904  	0.001189 
3944.428720  	0.001058 
3946.357536  	0.000951 
3948.286352  	0.001017 
3950.215168  	0.001094 
3952.143984  	0.000992 
3954.072800  	0.000866 
3956.001616  	0.000894 
3957.930432  	0.000910 
3959.859248  	0.000797 
3961.788064  	0.000791 
3963.716880  	0.000745 
3965.645696  	0.000704 
3967.574512  	0.000781 
3969.503328  	0.000702 
3971.432144  	0.000620 
3973.360960  	0.000744 
3975.289776  	0.000864 
3977.218592  	0.000719 
3979.147408  	0.000625 
3981.076224  	0.000658 
3983.005040  	0.000742 
3984.933856  	0.000843 
3986.862672  	0.000842 
3988.791488  	0.000928 
3990.720304  	0.000970 
3992.649120  	0.000823 
3994.577936  	0.000808 
3996.506752  	0.000721 
3998.435568  	0.000617 
4000.364384  	0.000605 