##TITLE=No Description
##DATA TYPE=INFRARED SPECTRUM
##XUNITS=1/CM
##YUNITS=Abs
399.264912  	0.216528 
401.193728  	0.214804 
403.122544  	0.214551 
405.051360  	0.213179 
406.980176  	0.210609 
408.908992  	0.210461 
410.837808  	0.215066 
412.766624  	0.213850 
414.695440  	0.212419 
416.624256  	0.208348 
418.553072  	0.208902 
420.481888  	0.207378 
422.410704  	0.203999 
424.339520  	0.200146 
426.268336  	0.201023 
428.197152  	0.198797 
430.125968  	0.199605 
432.054784  	0.198722 
433.983600  	0.200488 
435.912416  	0.199160 
437.841232  	0.194927 
439.770048  	0.192732 
441.698864  	0.193374 
443.627680  	0.191866 
445.556496  	0.192853 
447.485312  	0.191304 
449.414128  	0.188025 
451.342944  	0.188153 
453.271760  	0.192110 
455.200576  	0.195427 
457.129392  	0.195508 
459.058208  	0.194416 
460.987024  	0.194033 
462.915840  	0.192055 
464.844656  	0.193339 
466.773472  	0.195277 
468.702288  	0.197371 
470.631104  	0.196265 
472.559920  	0.196174 
474.488736  	0.194372 
476.417552  	0.196013 
478.346368  	0.196028 
480.275184  	0.195200 
482.204000  	0.195130 
484.132816  	0.195821 
486.061632  	0.194976 
487.990448  	0.198020 
489.919264  	0.198621 
491.848080  	0.198023 
493.776896  	0.196732 
495.705712  	0.198659 
497.634528  	0.198258 
499.563344  	0.198768 
501.492160  	0.200506 
503.420976  	0.199848 
505.349792  	0.198256 
507.278608  	0.201668 
509.207424  	0.203001 
511.136240  	0.203251 
513.065056  	0.204864 
514.993872  	0.206328 
516.922688  	0.205432 
518.851504  	0.207502 
520.780320  	0.209260 
522.709136  	0.210314 
524.637952  	0.210252 
526.566768  	0.210886 
528.495584  	0.210233 
530.424400  	0.209380 
532.353216  	0.209425 
534.282032  	0.211766 
536.210848  	0.211583 
538.139664  	0.209857 
540.068480  	0.208626 
541.997296  	0.207446 
543.926112  	0.205596 
545.854928  	0.205446 
547.783744  	0.205727 
549.712560  	0.206098 
551.641376  	0.205492 
553.570192  	0.204909 
555.499008  	0.204509 
557.427824  	0.204991 
559.356640  	0.204282 
561.285456  	0.203037 
563.214272  	0.202536 
565.143088  	0.202030 
567.071904  	0.200705 
569.000720  	0.200324 
570.929536  	0.199855 
572.858352  	0.199288 
574.787168  	0.198231 
576.715984  	0.197842 
578.644800  	0.197167 
580.573616  	0.197218 
582.502432  	0.195935 
584.431248  	0.194928 
586.360064  	0.193846 
588.288880  	0.193448 
590.217696  	0.192907 
592.146512  	0.191660 
594.075328  	0.190604 
596.004144  	0.190730 
597.932960  	0.190305 
599.861776  	0.189526 
601.790592  	0.188932 
603.719408  	0.189057 
605.648224  	0.188784 
607.577040  	0.188465 
609.505856  	0.188321 
611.434672  	0.188271 
613.363488  	0.187566 
615.292304  	0.187764 
617.221120  	0.186980 
619.149936  	0.186195 
621.078752  	0.186025 
623.007568  	0.185851 
624.936384  	0.184931 
626.865200  	0.184521 
628.794016  	0.184286 
630.722832  	0.184318 
632.651648  	0.184272 
634.580464  	0.184108 
636.509280  	0.183959 
638.438096  	0.183856 
640.366912  	0.184012 
642.295728  	0.183979 
644.224544  	0.182815 
646.153360  	0.182330 
648.082176  	0.181013 
650.010992  	0.179934 
651.939808  	0.178772 
653.868624  	0.177200 
655.797440  	0.175615 
657.726256  	0.174837 
659.655072  	0.173545 
661.583888  	0.172142 
663.512704  	0.170622 
665.441520  	0.169753 
667.370336  	0.167438 
669.299152  	0.164880 
671.227968  	0.164525 
673.156784  	0.163532 
675.085600  	0.162425 
677.014416  	0.161314 
678.943232  	0.160161 
680.872048  	0.159423 
682.800864  	0.158841 
684.729680  	0.158611 
686.658496  	0.157694 
688.587312  	0.157041 
690.516128  	0.156576 
692.444944  	0.156047 
694.373760  	0.155041 
696.302576  	0.154343 
698.231392  	0.153488 
700.160208  	0.152291 
702.089024  	0.151044 
704.017840  	0.149873 
705.946656  	0.148652 
707.875472  	0.147690 
709.804288  	0.146346 
711.733104  	0.145610 
713.661920  	0.144973 
715.590736  	0.143789 
717.519552  	0.142947 
719.448368  	0.142885 
721.377184  	0.142512 
723.306000  	0.142449 
725.234816  	0.142486 
727.163632  	0.142187 
729.092448  	0.141087 
731.021264  	0.140073 
732.950080  	0.138924 
734.878896  	0.137750 
736.807712  	0.136324 
738.736528  	0.135149 
740.665344  	0.134336 
742.594160  	0.133738 
744.522976  	0.132773 
746.451792  	0.131651 
748.380608  	0.130804 
750.309424  	0.130004 
752.238240  	0.129491 
754.167056  	0.129472 
756.095872  	0.129082 
758.024688  	0.128396 
759.953504  	0.127221 
761.882320  	0.126513 
763.811136  	0.126234 
765.739952  	0.125880 
767.668768  	0.125266 
769.597584  	0.124658 
771.526400  	0.123704 
773.455216  	0.123108 
775.384032  	0.123443 
777.312848  	0.124519 
779.241664  	0.125478 
781.170480  	0.125662 
783.099296  	0.124340 
785.028112  	0.122540 
786.956928  	0.120518 
788.885744  	0.118374 
790.814560  	0.116420 
792.743376  	0.114966 
794.672192  	0.114166 
796.601008  	0.113642 
798.529824  	0.112331 
800.458640  	0.110714 
802.387456  	0.108792 
804.316272  	0.107409 
806.245088  	0.106507 
808.173904  	0.105584 
810.102720  	0.104849 
812.031536  	0.104145 
813.960352  	0.103430 
815.889168  	0.103084 
817.817984  	0.102400 
819.746800  	0.101578 
821.675616  	0.100827 
823.604432  	0.100208 
825.533248  	0.099569 
827.462064  	0.098561 
829.390880  	0.097675 
831.319696  	0.096643 
833.248512  	0.095591 
835.177328  	0.094787 
837.106144  	0.093330 
839.034960  	0.092025 
840.963776  	0.090857 
842.892592  	0.089468 
844.821408  	0.087867 
846.750224  	0.086458 
848.679040  	0.085265 
850.607856  	0.084270 
852.536672  	0.083383 
854.465488  	0.082702 
856.394304  	0.081602 
858.323120  	0.080361 
860.251936  	0.078951 
862.180752  	0.077799 
864.109568  	0.076808 
866.038384  	0.075946 
867.967200  	0.074944 
869.896016  	0.074164 
871.824832  	0.073700 
873.753648  	0.073477 
875.682464  	0.073276 
877.611280  	0.072425 
879.540096  	0.071677 
881.468912  	0.072094 
883.397728  	0.072346 
885.326544  	0.072286 
887.255360  	0.071793 
889.184176  	0.070998 
891.112992  	0.070026 
893.041808  	0.069467 
894.970624  	0.068709 
896.899440  	0.067505 
898.828256  	0.066343 
900.757072  	0.065372 
902.685888  	0.064781 
904.614704  	0.064457 
906.543520  	0.064424 
908.472336  	0.064733 
910.401152  	0.065416 
912.329968  	0.066227 
914.258784  	0.067085 
916.187600  	0.067971 
918.116416  	0.068472 
920.045232  	0.068699 
921.974048  	0.068562 
923.902864  	0.068235 
925.831680  	0.067673 
927.760496  	0.067213 
929.689312  	0.066997 
931.618128  	0.066975 
933.546944  	0.066536 
935.475760  	0.066246 
937.404576  	0.066061 
939.333392  	0.065771 
941.262208  	0.065665 
943.191024  	0.066105 
945.119840  	0.066800 
947.048656  	0.067567 
948.977472  	0.068756 
950.906288  	0.070390 
952.835104  	0.072161 
954.763920  	0.073959 
956.692736  	0.075470 
958.621552  	0.076807 
960.550368  	0.077355 
962.479184  	0.077244 
964.408000  	0.076446 
966.336816  	0.075022 
968.265632  	0.072787 
970.194448  	0.069992 
972.123264  	0.066931 
974.052080  	0.063609 
975.980896  	0.060060 
977.909712  	0.056513 
979.838528  	0.053387 
981.767344  	0.050774 
983.696160  	0.048844 
985.624976  	0.047505 
987.553792  	0.046600 
989.482608  	0.046377 
991.411424  	0.046735 
993.340240  	0.047321 
995.269056  	0.048448 
997.197872  	0.049895 
999.126688  	0.051137 
1001.055504  	0.052239 
1002.984320  	0.053352 
1004.913136  	0.054530 
1006.841952  	0.055683 
1008.770768  	0.056715 
1010.699584  	0.057462 
1012.628400  	0.057924 
1014.557216  	0.058156 
1016.486032  	0.058254 
1018.414848  	0.058395 
1020.343664  	0.058430 
1022.272480  	0.058282 
1024.201296  	0.057994 
1026.130112  	0.056430 
1028.058928  	0.055544 
1029.987744  	0.056715 
1031.916560  	0.056975 
1033.845376  	0.056344 
1035.774192  	0.055343 
1037.703008  	0.054859 
1039.631824  	0.055728 
1041.560640  	0.056712 
1043.489456  	0.057999 
1045.418272  	0.060210 
1047.347088  	0.063340 
1049.275904  	0.066948 
1051.204720  	0.070732 
1053.133536  	0.074238 
1055.062352  	0.077073 
1056.991168  	0.079008 
1058.919984  	0.081396 
1060.848800  	0.083718 
1062.777616  	0.084027 
1064.706432  	0.081858 
1066.635248  	0.080794 
1068.564064  	0.081886 
1070.492880  	0.081514 
1072.421696  	0.079684 
1074.350512  	0.077752 
1076.279328  	0.076251 
1078.208144  	0.075915 
1080.136960  	0.076837 
1082.065776  	0.078044 
1083.994592  	0.078698 
1085.923408  	0.079420 
1087.852224  	0.079866 
1089.781040  	0.080093 
1091.709856  	0.080218 
1093.638672  	0.079358 
1095.567488  	0.077338 
1097.496304  	0.074634 
1099.425120  	0.071761 
1101.353936  	0.069043 
1103.282752  	0.065962 
1105.211568  	0.062720 
1107.140384  	0.059785 
1109.069200  	0.056989 
1110.998016  	0.054097 
1112.926832  	0.051329 
1114.855648  	0.048823 
1116.784464  	0.046371 
1118.713280  	0.043986 
1120.642096  	0.041402 
1122.570912  	0.038953 
1124.499728  	0.036772 
1126.428544  	0.034559 
1128.357360  	0.032648 
1130.286176  	0.030935 
1132.214992  	0.029335 
1134.143808  	0.028012 
1136.072624  	0.026725 
1138.001440  	0.025657 
1139.930256  	0.024507 
1141.859072  	0.023154 
1143.787888  	0.021942 
1145.716704  	0.020761 
1147.645520  	0.019811 
1149.574336  	0.019150 
1151.503152  	0.018429 
1153.431968  	0.017997 
1155.360784  	0.017765 
1157.289600  	0.017613 
1159.218416  	0.017547 
1161.147232  	0.017714 
1163.076048  	0.017959 
1165.004864  	0.018329 
1166.933680  	0.018668 
1168.862496  	0.019030 
1170.791312  	0.019465 
1172.720128  	0.020045 
1174.648944  	0.020575 
1176.577760  	0.021125 
1178.506576  	0.021744 
1180.435392  	0.022150 
1182.364208  	0.022632 
1184.293024  	0.023323 
1186.221840  	0.024023 
1188.150656  	0.024855 
1190.079472  	0.025842 
1192.008288  	0.026998 
1193.937104  	0.028381 
1195.865920  	0.030268 
1197.794736  	0.031994 
1199.723552  	0.033881 
1201.652368  	0.036076 
1203.581184  	0.038283 
1205.510000  	0.040424 
1207.438816  	0.042844 
1209.367632  	0.045269 
1211.296448  	0.047163 
1213.225264  	0.049020 
1215.154080  	0.050776 
1217.082896  	0.052347 
1219.011712  	0.053544 
1220.940528  	0.054579 
1222.869344  	0.055448 
1224.798160  	0.056361 
1226.726976  	0.057126 
1228.655792  	0.057809 
1230.584608  	0.058345 
1232.513424  	0.058779 
1234.442240  	0.059099 
1236.371056  	0.059080 
1238.299872  	0.058448 
1240.228688  	0.056677 
1242.157504  	0.054896 
1244.086320  	0.053783 
1246.015136  	0.051892 
1247.943952  	0.049251 
1249.872768  	0.046533 
1251.801584  	0.044389 
1253.730400  	0.042194 
1255.659216  	0.040064 
1257.588032  	0.038000 
1259.516848  	0.035878 
1261.445664  	0.033946 
1263.374480  	0.032270 
1265.303296  	0.030813 
1267.232112  	0.029570 
1269.160928  	0.028576 
1271.089744  	0.027758 
1273.018560  	0.027377 
1274.947376  	0.027241 
1276.876192  	0.027012 
1278.805008  	0.026748 
1280.733824  	0.026245 
1282.662640  	0.025302 
1284.591456  	0.024368 
1286.520272  	0.023457 
1288.449088  	0.022672 
1290.377904  	0.022310 
1292.306720  	0.021832 
1294.235536  	0.021080 
1296.164352  	0.020245 
1298.093168  	0.019190 
1300.021984  	0.018067 
1301.950800  	0.016949 
1303.879616  	0.015808 
1305.808432  	0.014772 
1307.737248  	0.013959 
1309.666064  	0.013215 
1311.594880  	0.012638 
1313.523696  	0.012232 
1315.452512  	0.012003 
1317.381328  	0.011967 
1319.310144  	0.011878 
1321.238960  	0.011845 
1323.167776  	0.012151 
1325.096592  	0.012343 
1327.025408  	0.012525 
1328.954224  	0.012610 
1330.883040  	0.012392 
1332.811856  	0.012108 
1334.740672  	0.011705 
1336.669488  	0.011490 
1338.598304  	0.011577 
1340.527120  	0.011204 
1342.455936  	0.010666 
1344.384752  	0.010476 
1346.313568  	0.010537 
1348.242384  	0.010839 
1350.171200  	0.011333 
1352.100016  	0.011886 
1354.028832  	0.012527 
1355.957648  	0.013273 
1357.886464  	0.013902 
1359.815280  	0.014477 
1361.744096  	0.015096 
1363.672912  	0.015430 
1365.601728  	0.015540 
1367.530544  	0.015651 
1369.459360  	0.015638 
1371.388176  	0.015423 
1373.316992  	0.015217 
1375.245808  	0.014619 
1377.174624  	0.013600 
1379.103440  	0.012385 
1381.032256  	0.011021 
1382.961072  	0.010049 
1384.889888  	0.009696 
1386.818704  	0.009624 
1388.747520  	0.009139 
1390.676336  	0.008042 
1392.605152  	0.006295 
1394.533968  	0.005741 
1396.462784  	0.007299 
1398.391600  	0.007861 
1400.320416  	0.007687 
1402.249232  	0.007339 
1404.178048  	0.007408 
1406.106864  	0.007522 
1408.035680  	0.007915 
1409.964496  	0.008758 
1411.893312  	0.009962 
1413.822128  	0.011079 
1415.750944  	0.012291 
1417.679760  	0.013369 
1419.608576  	0.013889 
1421.537392  	0.013688 
1423.466208  	0.013641 
1425.395024  	0.013226 
1427.323840  	0.012791 
1429.252656  	0.012477 
1431.181472  	0.012212 
1433.110288  	0.012166 
1435.039104  	0.012484 
1436.967920  	0.012807 
1438.896736  	0.012779 
1440.825552  	0.012835 
1442.754368  	0.012970 
1444.683184  	0.013082 
1446.612000  	0.013318 
1448.540816  	0.013283 
1450.469632  	0.013319 
1452.398448  	0.013707 
1454.327264  	0.014168 
1456.256080  	0.014799 
1458.184896  	0.014937 
1460.113712  	0.014901 
1462.042528  	0.015002 
1463.971344  	0.015230 
1465.900160  	0.015788 
1467.828976  	0.016302 
1469.757792  	0.017081 
1471.686608  	0.018203 
1473.615424  	0.019677 
1475.544240  	0.020732 
1477.473056  	0.021631 
1479.401872  	0.022154 
1481.330688  	0.022626 
1483.259504  	0.022786 
1485.188320  	0.022993 
1487.117136  	0.023034 
1489.045952  	0.022851 
1490.974768  	0.021610 
1492.903584  	0.020414 
1494.832400  	0.019465 
1496.761216  	0.018093 
1498.690032  	0.016571 
1500.618848  	0.015432 
1502.547664  	0.014370 
1504.476480  	0.013427 
1506.405296  	0.012989 
1508.334112  	0.012751 
1510.262928  	0.012124 
1512.191744  	0.011595 
1514.120560  	0.011227 
1516.049376  	0.011343 
1517.978192  	0.011487 
1519.907008  	0.011795 
1521.835824  	0.012635 
1523.764640  	0.013522 
1525.693456  	0.014492 
1527.622272  	0.015152 
1529.551088  	0.015315 
1531.479904  	0.015401 
1533.408720  	0.015116 
1535.337536  	0.014393 
1537.266352  	0.013569 
1539.195168  	0.012444 
1541.123984  	0.011512 
1543.052800  	0.011313 
1544.981616  	0.010800 
1546.910432  	0.010289 
1548.839248  	0.010236 
1550.768064  	0.010264 
1552.696880  	0.010022 
1554.625696  	0.010251 
1556.554512  	0.010277 
1558.483328  	0.010902 
1560.412144  	0.011780 
1562.340960  	0.012496 
1564.269776  	0.013448 
1566.198592  	0.014778 
1568.127408  	0.015641 
1570.056224  	0.017172 
1571.985040  	0.018751 
1573.913856  	0.019748 
1575.842672  	0.020308 
1577.771488  	0.020918 
1579.700304  	0.021043 
1581.629120  	0.021031 
1583.557936  	0.021025 
1585.486752  	0.021245 
1587.415568  	0.021862 
1589.344384  	0.023242 
1591.273200  	0.024753 
1593.202016  	0.026613 
1595.130832  	0.028498 
1597.059648  	0.030416 
1598.988464  	0.031933 
1600.917280  	0.033215 
1602.846096  	0.034113 
1604.774912  	0.034701 
1606.703728  	0.034754 
1608.632544  	0.034544 
1610.561360  	0.034085 
1612.490176  	0.033893 
1614.418992  	0.033575 
1616.347808  	0.033654 
1618.276624  	0.034397 
1620.205440  	0.035480 
1622.134256  	0.036453 
1624.063072  	0.038515 
1625.991888  	0.040551 
1627.920704  	0.043041 
1629.849520  	0.045864 
1631.778336  	0.048450 
1633.707152  	0.050635 
1635.635968  	0.053961 
1637.564784  	0.057135 
1639.493600  	0.059351 
1641.422416  	0.061463 
1643.351232  	0.063308 
1645.280048  	0.064416 
1647.208864  	0.065855 
1649.137680  	0.066410 
1651.066496  	0.066454 
1652.995312  	0.066539 
1654.924128  	0.066800 
1656.852944  	0.066231 
1658.781760  	0.065819 
1660.710576  	0.065242 
1662.639392  	0.064662 
1664.568208  	0.063854 
1666.497024  	0.063158 
1668.425840  	0.062453 
1670.354656  	0.061714 
1672.283472  	0.060929 
1674.212288  	0.060548 
1676.141104  	0.060489 
1678.069920  	0.060554 
1679.998736  	0.060758 
1681.927552  	0.060993 
1683.856368  	0.061222 
1685.785184  	0.061762 
1687.714000  	0.061846 
1689.642816  	0.061966 
1691.571632  	0.061625 
1693.500448  	0.061158 
1695.429264  	0.060488 
1697.358080  	0.059877 
1699.286896  	0.058855 
1701.215712  	0.057514 
1703.144528  	0.056331 
1705.073344  	0.054928 
1707.002160  	0.053024 
1708.930976  	0.051054 
1710.859792  	0.048941 
1712.788608  	0.046502 
1714.717424  	0.043522 
1716.646240  	0.040066 
1718.575056  	0.036221 
1720.503872  	0.033002 
1722.432688  	0.030249 
1724.361504  	0.026966 
1726.290320  	0.023884 
1728.219136  	0.021275 
1730.147952  	0.019158 
1732.076768  	0.017087 
1734.005584  	0.014898 
1735.934400  	0.012736 
1737.863216  	0.011553 
1739.792032  	0.009958 
1741.720848  	0.008865 
1743.649664  	0.008047 
1745.578480  	0.007250 
1747.507296  	0.006562 
1749.436112  	0.006060 
1751.364928  	0.005377 
1753.293744  	0.004610 
1755.222560  	0.003980 
1757.151376  	0.003725 
1759.080192  	0.003302 
1761.009008  	0.003183 
1762.937824  	0.002931 
1764.866640  	0.002621 
1766.795456  	0.002528 
1768.724272  	0.002551 
1770.653088  	0.002138 
1772.581904  	0.001988 
1774.510720  	0.001792 
1776.439536  	0.001892 
1778.368352  	0.001908 
1780.297168  	0.001779 
1782.225984  	0.001532 
1784.154800  	0.001713 
1786.083616  	0.001598 
1788.012432  	0.001373 
1789.941248  	0.001272 
1791.870064  	0.001377 
1793.798880  	0.001203 
1795.727696  	0.001238 
1797.656512  	0.000856 
1799.585328  	0.000664 
1801.514144  	0.000991 
1803.442960  	0.001067 
1805.371776  	0.000708 
1807.300592  	0.000886 
1809.229408  	0.000916 
1811.158224  	0.000884 
1813.087040  	0.000695 
1815.015856  	0.000435 
1816.944672  	0.000431 
1818.873488  	0.000691 
1820.802304  	0.000636 
1822.731120  	0.000679 
1824.659936  	0.000711 
1826.588752  	0.000946 
1828.517568  	0.000736 
1830.446384  	0.000502 
1832.375200  	0.000368 
1834.304016  	0.000570 
1836.232832  	0.000464 
1838.161648  	0.000515 
1840.090464  	0.000439 
1842.019280  	0.000574 
1843.948096  	0.000690 
1845.876912  	0.000738 
1847.805728  	0.000597 
1849.734544  	0.000694 
1851.663360  	0.000350 
1853.592176  	0.000302 
1855.520992  	0.000187 
1857.449808  	0.000331 
1859.378624  	0.000359 
1861.307440  	0.000354 
1863.236256  	0.000459 
1865.165072  	0.000675 
1867.093888  	0.000802 
1869.022704  	0.000893 
1870.951520  	0.000625 
1872.880336  	0.000417 
1874.809152  	0.000235 
1876.737968  	0.000331 
1878.666784  	0.000516 
1880.595600  	0.000654 
1882.524416  	0.000308 
1884.453232  	0.000321 
1886.382048  	0.000252 
1888.310864  	0.000074 
1890.239680  	-0.000135 
1892.168496  	-0.000202 
1894.097312  	-0.000140 
1896.026128  	0.000018 
1897.954944  	-0.000299 
1899.883760  	-0.000138 
1901.812576  	0.000062 
1903.741392  	0.000381 
1905.670208  	0.000377 
1907.599024  	0.000260 
1909.527840  	0.000315 
1911.456656  	0.000286 
1913.385472  	0.000296 
1915.314288  	0.000430 
1917.243104  	0.000568 
1919.171920  	0.000783 
1921.100736  	0.000271 
1923.029552  	-0.000150 
1924.958368  	-0.000334 
1926.887184  	-0.000168 
1928.816000  	-0.000128 
1930.744816  	0.000552 
1932.673632  	0.000577 
1934.602448  	0.000274 
1936.531264  	0.000218 
1938.460080  	0.000185 
1940.388896  	-0.000417 
1942.317712  	-0.000259 
1944.246528  	-0.000385 
1946.175344  	-0.000036 
1948.104160  	0.000118 
1950.032976  	0.000597 
1951.961792  	0.000545 
1953.890608  	0.000591 
1955.819424  	0.000266 
1957.748240  	0.000279 
1959.677056  	0.000014 
1961.605872  	-0.000138 
1963.534688  	0.000550 
1965.463504  	0.000454 
1967.392320  	0.000218 
1969.321136  	0.000503 
1971.249952  	0.000315 
1973.178768  	-0.000244 
1975.107584  	0.000513 
1977.036400  	0.002334 
1978.965216  	0.002080 
1980.894032  	0.001722 
1982.822848  	0.001682 
1984.751664  	0.000797 
1986.680480  	0.000041 
1988.609296  	0.001424 
1990.538112  	0.001456 
1992.466928  	0.000837 
1994.395744  	0.000385 
1996.324560  	-0.000272 
1998.253376  	-0.000270 
2000.182192  	0.000444 
2002.111008  	0.000674 
2004.039824  	0.001190 
2005.968640  	0.001982 
2007.897456  	0.001751 
2009.826272  	0.000173 
2011.755088  	0.000925 
2013.683904  	0.000449 
2015.612720  	0.000140 
2017.541536  	0.000724 
2019.470352  	0.001189 
2021.399168  	0.000973 
2023.327984  	0.001055 
2025.256800  	0.000599 
2027.185616  	-0.000286 
2029.114432  	-0.000262 
2031.043248  	-0.000192 
2032.972064  	-0.000220 
2034.900880  	0.000673 
2036.829696  	0.000607 
2038.758512  	0.000526 
2040.687328  	0.000394 
2042.616144  	0.000005 
2044.544960  	0.000316 
2046.473776  	0.000994 
2048.402592  	0.001122 
2050.331408  	0.001307 
2052.260224  	0.000911 
2054.189040  	0.000664 
2056.117856  	0.000177 
2058.046672  	-0.000343 
2059.975488  	-0.000074 
2061.904304  	0.000558 
2063.833120  	0.000726 
2065.761936  	0.000571 
2067.690752  	0.000029 
2069.619568  	-0.000003 
2071.548384  	0.000504 
2073.477200  	0.000808 
2075.406016  	0.000804 
2077.334832  	0.000164 
2079.263648  	-0.000402 
2081.192464  	0.000107 
2083.121280  	0.000512 
2085.050096  	0.000653 
2086.978912  	0.000569 
2088.907728  	0.000598 
2090.836544  	0.000223 
2092.765360  	0.000087 
2094.694176  	0.000117 
2096.622992  	0.000574 
2098.551808  	0.000629 
2100.480624  	0.000731 
2102.409440  	0.000829 
2104.338256  	0.001091 
2106.267072  	0.001118 
2108.195888  	0.001100 
2110.124704  	0.000755 
2112.053520  	0.000468 
2113.982336  	0.000198 
2115.911152  	0.000070 
2117.839968  	0.000040 
2119.768784  	0.000039 
2121.697600  	-0.000286 
2123.626416  	-0.000204 
2125.555232  	-0.000304 
2127.484048  	-0.000062 
2129.412864  	-0.000257 
2131.341680  	-0.000912 
2133.270496  	-0.000513 
2135.199312  	-0.000036 
2137.128128  	-0.000280 
2139.056944  	-0.000208 
2140.985760  	-0.000090 
2142.914576  	0.000479 
2144.843392  	-0.000300 
2146.772208  	-0.000786 
2148.701024  	-0.000748 
2150.629840  	-0.000833 
2152.558656  	-0.001412 
2154.487472  	-0.001742 
2156.416288  	-0.001235 
2158.345104  	0.001637 
2160.273920  	0.004021 
2162.202736  	0.002971 
2164.131552  	0.002309 
2166.060368  	0.002804 
2167.989184  	0.002144 
2169.918000  	0.001420 
2171.846816  	0.000836 
2173.775632  	0.001028 
2175.704448  	0.001022 
2177.633264  	0.001661 
2179.562080  	0.002025 
2181.490896  	0.003019 
2183.419712  	0.003788 
2185.348528  	0.003051 
2187.277344  	0.002506 
2189.206160  	0.002167 
2191.134976  	0.001628 
2193.063792  	0.001552 
2194.992608  	0.001708 
2196.921424  	0.001321 
2198.850240  	0.000831 
2200.779056  	0.001784 
2202.707872  	0.002267 
2204.636688  	0.001593 
2206.565504  	0.001321 
2208.494320  	0.001053 
2210.423136  	0.001548 
2212.351952  	0.002410 
2214.280768  	0.001776 
2216.209584  	0.000812 
2218.138400  	0.000834 
2220.067216  	0.001754 
2221.996032  	0.001895 
2223.924848  	0.001757 
2225.853664  	0.001865 
2227.782480  	0.001672 
2229.711296  	0.001290 
2231.640112  	0.001193 
2233.568928  	0.000228 
2235.497744  	0.000060 
2237.426560  	0.000709 
2239.355376  	0.001027 
2241.284192  	0.000722 
2243.213008  	0.001394 
2245.141824  	0.001503 
2247.070640  	0.000798 
2248.999456  	0.000291 
2250.928272  	0.000387 
2252.857088  	0.000738 
2254.785904  	0.001214 
2256.714720  	0.000701 
2258.643536  	0.000319 
2260.572352  	0.000770 
2262.501168  	0.001157 
2264.429984  	0.001519 
2266.358800  	0.001299 
2268.287616  	0.000948 
2270.216432  	0.000821 
2272.145248  	0.000613 
2274.074064  	0.000766 
2276.002880  	0.001398 
2277.931696  	0.001645 
2279.860512  	0.001447 
2281.789328  	0.001543 
2283.718144  	0.001710 
2285.646960  	0.001783 
2287.575776  	0.001686 
2289.504592  	0.001344 
2291.433408  	0.000971 
2293.362224  	0.000935 
2295.291040  	0.000796 
2297.219856  	0.000692 
2299.148672  	0.000708 
2301.077488  	0.000593 
2303.006304  	0.000360 
2304.935120  	0.000204 
2306.863936  	-0.000043 
2308.792752  	-0.000198 
2310.721568  	-0.000243 
2312.650384  	-0.000461 
2314.579200  	-0.000820 
2316.508016  	-0.001172 
2318.436832  	-0.001943 
2320.365648  	-0.002205 
2322.294464  	-0.002137 
2324.223280  	-0.002993 
2326.152096  	-0.004223 
2328.080912  	-0.004913 
2330.009728  	-0.005318 
2331.938544  	-0.005552 
2333.867360  	-0.005923 
2335.796176  	-0.006150 
2337.724992  	-0.006773 
2339.653808  	-0.006812 
2341.582624  	-0.007006 
2343.511440  	-0.006838 
2345.440256  	-0.005216 
2347.369072  	-0.003570 
2349.297888  	-0.003294 
2351.226704  	-0.004489 
2353.155520  	-0.006001 
2355.084336  	-0.007188 
2357.013152  	-0.008614 
2358.941968  	-0.009181 
2360.870784  	-0.009101 
2362.799600  	-0.008738 
2364.728416  	-0.008148 
2366.657232  	-0.007225 
2368.586048  	-0.006002 
2370.514864  	-0.004778 
2372.443680  	-0.003781 
2374.372496  	-0.002550 
2376.301312  	-0.001675 
2378.230128  	-0.000852 
2380.158944  	-0.000231 
2382.087760  	0.000057 
2384.016576  	0.000304 
2385.945392  	0.000538 
2387.874208  	0.000559 
2389.803024  	0.000678 
2391.731840  	0.000716 
2393.660656  	0.000931 
2395.589472  	0.001102 
2397.518288  	0.001214 
2399.447104  	0.001138 
2401.375920  	0.000918 
2403.304736  	0.000736 
2405.233552  	0.001033 
2407.162368  	0.001035 
2409.091184  	0.000974 
2411.020000  	0.001122 
2412.948816  	0.001099 
2414.877632  	0.001019 
2416.806448  	0.001052 
2418.735264  	0.001265 
2420.664080  	0.001220 
2422.592896  	0.001284 
2424.521712  	0.001023 
2426.450528  	0.000998 
2428.379344  	0.001291 
2430.308160  	0.001330 
2432.236976  	0.001385 
2434.165792  	0.001489 
2436.094608  	0.001590 
2438.023424  	0.001725 
2439.952240  	0.001908 
2441.881056  	0.001675 
2443.809872  	0.001612 
2445.738688  	0.001668 
2447.667504  	0.001775 
2449.596320  	0.001802 
2451.525136  	0.001730 
2453.453952  	0.001753 
2455.382768  	0.001813 
2457.311584  	0.001767 
2459.240400  	0.001783 
2461.169216  	0.001891 
2463.098032  	0.002071 
2465.026848  	0.002055 
2466.955664  	0.002036 
2468.884480  	0.001921 
2470.813296  	0.001902 
2472.742112  	0.001997 
2474.670928  	0.002120 
2476.599744  	0.002020 
2478.528560  	0.002009 
2480.457376  	0.002134 
2482.386192  	0.002302 
2484.315008  	0.002275 
2486.243824  	0.002112 
2488.172640  	0.002121 
2490.101456  	0.002259 
2492.030272  	0.002273 
2493.959088  	0.002044 
2495.887904  	0.002221 
2497.816720  	0.002587 
2499.745536  	0.002478 
2501.674352  	0.002396 
2503.603168  	0.002431 
2505.531984  	0.002445 
2507.460800  	0.002462 
2509.389616  	0.002782 
2511.318432  	0.002785 
2513.247248  	0.002467 
2515.176064  	0.002392 
2517.104880  	0.002372 
2519.033696  	0.002496 
2520.962512  	0.002565 
2522.891328  	0.002544 
2524.820144  	0.002458 
2526.748960  	0.002435 
2528.677776  	0.002507 
2530.606592  	0.002412 
2532.535408  	0.002416 
2534.464224  	0.002582 
2536.393040  	0.002773 
2538.321856  	0.002770 
2540.250672  	0.002875 
2542.179488  	0.003054 
2544.108304  	0.003072 
2546.037120  	0.002790 
2547.965936  	0.002789 
2549.894752  	0.002947 
2551.823568  	0.003064 
2553.752384  	0.002928 
2555.681200  	0.002799 
2557.610016  	0.002826 
2559.538832  	0.002936 
2561.467648  	0.003011 
2563.396464  	0.003065 
2565.325280  	0.003215 
2567.254096  	0.003374 
2569.182912  	0.003241 
2571.111728  	0.003088 
2573.040544  	0.003185 
2574.969360  	0.003312 
2576.898176  	0.003255 
2578.826992  	0.003245 
2580.755808  	0.003345 
2582.684624  	0.003403 
2584.613440  	0.003533 
2586.542256  	0.003448 
2588.471072  	0.003465 
2590.399888  	0.003640 
2592.328704  	0.003400 
2594.257520  	0.003301 
2596.186336  	0.003448 
2598.115152  	0.003672 
2600.043968  	0.003755 
2601.972784  	0.003686 
2603.901600  	0.003715 
2605.830416  	0.003901 
2607.759232  	0.003699 
2609.688048  	0.003643 
2611.616864  	0.003787 
2613.545680  	0.003832 
2615.474496  	0.003928 
2617.403312  	0.004009 
2619.332128  	0.003961 
2621.260944  	0.003933 
2623.189760  	0.003909 
2625.118576  	0.003978 
2627.047392  	0.004186 
2628.976208  	0.004360 
2630.905024  	0.004277 
2632.833840  	0.004310 
2634.762656  	0.004381 
2636.691472  	0.004413 
2638.620288  	0.004472 
2640.549104  	0.004450 
2642.477920  	0.004509 
2644.406736  	0.004582 
2646.335552  	0.004636 
2648.264368  	0.004699 
2650.193184  	0.004803 
2652.122000  	0.004870 
2654.050816  	0.004897 
2655.979632  	0.004816 
2657.908448  	0.004725 
2659.837264  	0.004714 
2661.766080  	0.004670 
2663.694896  	0.004603 
2665.623712  	0.004521 
2667.552528  	0.004592 
2669.481344  	0.004708 
2671.410160  	0.004710 
2673.338976  	0.004690 
2675.267792  	0.004736 
2677.196608  	0.004770 
2679.125424  	0.004795 
2681.054240  	0.004950 
2682.983056  	0.005177 
2684.911872  	0.005130 
2686.840688  	0.005004 
2688.769504  	0.004993 
2690.698320  	0.005094 
2692.627136  	0.005252 
2694.555952  	0.005306 
2696.484768  	0.005321 
2698.413584  	0.005342 
2700.342400  	0.005310 
2702.271216  	0.005397 
2704.200032  	0.005418 
2706.128848  	0.005452 
2708.057664  	0.005598 
2709.986480  	0.005719 
2711.915296  	0.005737 
2713.844112  	0.005734 
2715.772928  	0.005661 
2717.701744  	0.005788 
2719.630560  	0.005906 
2721.559376  	0.005893 
2723.488192  	0.005952 
2725.417008  	0.006143 
2727.345824  	0.006134 
2729.274640  	0.006091 
2731.203456  	0.006119 
2733.132272  	0.006220 
2735.061088  	0.006303 
2736.989904  	0.006337 
2738.918720  	0.006327 
2740.847536  	0.006259 
2742.776352  	0.006316 
2744.705168  	0.006386 
2746.633984  	0.006351 
2748.562800  	0.006383 
2750.491616  	0.006457 
2752.420432  	0.006489 
2754.349248  	0.006483 
2756.278064  	0.006606 
2758.206880  	0.006719 
2760.135696  	0.006664 
2762.064512  	0.006636 
2763.993328  	0.006674 
2765.922144  	0.006697 
2767.850960  	0.006678 
2769.779776  	0.006679 
2771.708592  	0.006807 
2773.637408  	0.006862 
2775.566224  	0.006745 
2777.495040  	0.006867 
2779.423856  	0.007017 
2781.352672  	0.006952 
2783.281488  	0.006875 
2785.210304  	0.006891 
2787.139120  	0.006911 
2789.067936  	0.006864 
2790.996752  	0.006905 
2792.925568  	0.006982 
2794.854384  	0.007016 
2796.783200  	0.007113 
2798.712016  	0.007142 
2800.640832  	0.007177 
2802.569648  	0.007134 
2804.498464  	0.007161 
2806.427280  	0.007224 
2808.356096  	0.007221 
2810.284912  	0.007182 
2812.213728  	0.007236 
2814.142544  	0.007413 
2816.071360  	0.007449 
2818.000176  	0.007377 
2819.928992  	0.007362 
2821.857808  	0.007403 
2823.786624  	0.007480 
2825.715440  	0.007689 
2827.644256  	0.007775 
2829.573072  	0.007734 
2831.501888  	0.007849 
2833.430704  	0.007937 
2835.359520  	0.007941 
2837.288336  	0.007981 
2839.217152  	0.007790 
2841.145968  	0.007611 
2843.074784  	0.007584 
2845.003600  	0.007828 
2846.932416  	0.008366 
2848.861232  	0.008723 
2850.790048  	0.008368 
2852.718864  	0.007622 
2854.647680  	0.006820 
2856.576496  	0.006157 
2858.505312  	0.005691 
2860.434128  	0.005193 
2862.362944  	0.004708 
2864.291760  	0.004455 
2866.220576  	0.004216 
2868.149392  	0.003965 
2870.078208  	0.003939 
2872.007024  	0.004014 
2873.935840  	0.004057 
2875.864656  	0.003906 
2877.793472  	0.003696 
2879.722288  	0.003498 
2881.651104  	0.003227 
2883.579920  	0.002889 
2885.508736  	0.002803 
2887.437552  	0.002950 
2889.366368  	0.003108 
2891.295184  	0.002985 
2893.224000  	0.002887 
2895.152816  	0.002963 
2897.081632  	0.002932 
2899.010448  	0.002202 
2900.939264  	0.001568 
2902.868080  	0.002357 
2904.796896  	0.003202 
2906.725712  	0.003832 
2908.654528  	0.004410 
2910.583344  	0.004787 
2912.512160  	0.005656 
2914.440976  	0.007072 
2916.369792  	0.008125 
2918.298608  	0.008408 
2920.227424  	0.008280 
2922.156240  	0.008060 
2924.085056  	0.007952 
2926.013872  	0.007919 
2927.942688  	0.007817 
2929.871504  	0.007792 
2931.800320  	0.007857 
2933.729136  	0.007819 
2935.657952  	0.007614 
2937.586768  	0.007529 
2939.515584  	0.007414 
2941.444400  	0.007230 
2943.373216  	0.007171 
2945.302032  	0.007279 
2947.230848  	0.007478 
2949.159664  	0.007563 
2951.088480  	0.007526 
2953.017296  	0.007320 
2954.946112  	0.006861 
2956.874928  	0.006449 
2958.803744  	0.005997 
2960.732560  	0.005512 
2962.661376  	0.004954 
2964.590192  	0.004193 
2966.519008  	0.003287 
2968.447824  	0.002453 
2970.376640  	0.002024 
2972.305456  	0.001639 
2974.234272  	0.001436 
2976.163088  	0.001421 
2978.091904  	0.001234 
2980.020720  	0.001095 
2981.949536  	0.001294 
2983.878352  	0.001083 
2985.807168  	0.000289 
2987.735984  	-0.000413 
2989.664800  	-0.000023 
2991.593616  	0.001685 
2993.522432  	0.002552 
2995.451248  	0.002633 
2997.380064  	0.002962 
2999.308880  	0.003611 
3001.237696  	0.004337 
3003.166512  	0.004966 
3005.095328  	0.005757 
3007.024144  	0.006380 
3008.952960  	0.006936 
3010.881776  	0.007724 
3012.810592  	0.008557 
3014.739408  	0.009400 
3016.668224  	0.009932 
3018.597040  	0.010338 
3020.525856  	0.010718 
3022.454672  	0.011212 
3024.383488  	0.011801 
3026.312304  	0.012182 
3028.241120  	0.012535 
3030.169936  	0.012975 
3032.098752  	0.013383 
3034.027568  	0.013704 
3035.956384  	0.014013 
3037.885200  	0.014326 
3039.814016  	0.014577 
3041.742832  	0.014778 
3043.671648  	0.015020 
3045.600464  	0.015427 
3047.529280  	0.015615 
3049.458096  	0.015743 
3051.386912  	0.015720 
3053.315728  	0.015732 
3055.244544  	0.015913 
3057.173360  	0.016232 
3059.102176  	0.016554 
3061.030992  	0.016690 
3062.959808  	0.016869 
3064.888624  	0.017076 
3066.817440  	0.017342 
3068.746256  	0.017510 
3070.675072  	0.017664 
3072.603888  	0.017883 
3074.532704  	0.018050 
3076.461520  	0.018390 
3078.390336  	0.018461 
3080.319152  	0.018472 
3082.247968  	0.018750 
3084.176784  	0.018945 
3086.105600  	0.019129 
3088.034416  	0.019496 
3089.963232  	0.019652 
3091.892048  	0.019777 
3093.820864  	0.019992 
3095.749680  	0.020135 
3097.678496  	0.020161 
3099.607312  	0.020364 
3101.536128  	0.020701 
3103.464944  	0.021028 
3105.393760  	0.021250 
3107.322576  	0.021297 
3109.251392  	0.021346 
3111.180208  	0.021499 
3113.109024  	0.021892 
3115.037840  	0.022177 
3116.966656  	0.022373 
3118.895472  	0.022633 
3120.824288  	0.022749 
3122.753104  	0.022825 
3124.681920  	0.022956 
3126.610736  	0.023056 
3128.539552  	0.023230 
3130.468368  	0.023486 
3132.397184  	0.023629 
3134.326000  	0.023808 
3136.254816  	0.023897 
3138.183632  	0.024066 
3140.112448  	0.024307 
3142.041264  	0.024445 
3143.970080  	0.024568 
3145.898896  	0.024670 
3147.827712  	0.024730 
3149.756528  	0.024780 
3151.685344  	0.024968 
3153.614160  	0.025167 
3155.542976  	0.025448 
3157.471792  	0.025719 
3159.400608  	0.025923 
3161.329424  	0.026142 
3163.258240  	0.026130 
3165.187056  	0.026238 
3167.115872  	0.026450 
3169.044688  	0.026748 
3170.973504  	0.026803 
3172.902320  	0.026878 
3174.831136  	0.027154 
3176.759952  	0.027296 
3178.688768  	0.027259 
3180.617584  	0.027593 
3182.546400  	0.027878 
3184.475216  	0.027875 
3186.404032  	0.027850 
3188.332848  	0.027807 
3190.261664  	0.027908 
3192.190480  	0.027864 
3194.119296  	0.027887 
3196.048112  	0.027935 
3197.976928  	0.027925 
3199.905744  	0.027933 
3201.834560  	0.027907 
3203.763376  	0.027870 
3205.692192  	0.027864 
3207.621008  	0.027838 
3209.549824  	0.027733 
3211.478640  	0.027618 
3213.407456  	0.027765 
3215.336272  	0.027963 
3217.265088  	0.027813 
3219.193904  	0.027605 
3221.122720  	0.027747 
3223.051536  	0.027592 
3224.980352  	0.027060 
3226.909168  	0.026981 
3228.837984  	0.027230 
3230.766800  	0.027438 
3232.695616  	0.027304 
3234.624432  	0.027007 
3236.553248  	0.026885 
3238.482064  	0.027013 
3240.410880  	0.027005 
3242.339696  	0.026754 
3244.268512  	0.026645 
3246.197328  	0.026816 
3248.126144  	0.026857 
3250.054960  	0.027061 
3251.983776  	0.027193 
3253.912592  	0.027202 
3255.841408  	0.027285 
3257.770224  	0.027252 
3259.699040  	0.027275 
3261.627856  	0.027302 
3263.556672  	0.027458 
3265.485488  	0.027655 
3267.414304  	0.027500 
3269.343120  	0.027433 
3271.271936  	0.027466 
3273.200752  	0.027639 
3275.129568  	0.027984 
3277.058384  	0.028183 
3278.987200  	0.028255 
3280.916016  	0.028153 
3282.844832  	0.028086 
3284.773648  	0.028282 
3286.702464  	0.028391 
3288.631280  	0.028377 
3290.560096  	0.028505 
3292.488912  	0.028724 
3294.417728  	0.028913 
3296.346544  	0.029083 
3298.275360  	0.029222 
3300.204176  	0.029265 
3302.132992  	0.029393 
3304.061808  	0.029757 
3305.990624  	0.030046 
3307.919440  	0.030200 
3309.848256  	0.030217 
3311.777072  	0.030140 
3313.705888  	0.030336 
3315.634704  	0.030448 
3317.563520  	0.030547 
3319.492336  	0.030801 
3321.421152  	0.030908 
3323.349968  	0.030762 
3325.278784  	0.030764 
3327.207600  	0.031047 
3329.136416  	0.031196 
3331.065232  	0.031297 
3332.994048  	0.031323 
3334.922864  	0.031345 
3336.851680  	0.031385 
3338.780496  	0.031409 
3340.709312  	0.031542 
3342.638128  	0.031696 
3344.566944  	0.031748 
3346.495760  	0.031781 
3348.424576  	0.031436 
3350.353392  	0.031409 
3352.282208  	0.031424 
3354.211024  	0.031304 
3356.139840  	0.031177 
3358.068656  	0.031076 
3359.997472  	0.031058 
3361.926288  	0.030956 
3363.855104  	0.030667 
3365.783920  	0.030567 
3367.712736  	0.030494 
3369.641552  	0.030441 
3371.570368  	0.030317 
3373.499184  	0.030351 
3375.428000  	0.030356 
3377.356816  	0.030043 
3379.285632  	0.029555 
3381.214448  	0.029216 
3383.143264  	0.028979 
3385.072080  	0.028969 
3387.000896  	0.029027 
3388.929712  	0.028866 
3390.858528  	0.028540 
3392.787344  	0.028395 
3394.716160  	0.028364 
3396.644976  	0.028517 
3398.573792  	0.028493 
3400.502608  	0.028197 
3402.431424  	0.028051 
3404.360240  	0.028003 
3406.289056  	0.027776 
3408.217872  	0.027538 
3410.146688  	0.027326 
3412.075504  	0.027221 
3414.004320  	0.027195 
3415.933136  	0.026993 
3417.861952  	0.026670 
3419.790768  	0.026573 
3421.719584  	0.026721 
3423.648400  	0.026629 
3425.577216  	0.026392 
3427.506032  	0.026224 
3429.434848  	0.026075 
3431.363664  	0.025843 
3433.292480  	0.025472 
3435.221296  	0.025134 
3437.150112  	0.025152 
3439.078928  	0.025114 
3441.007744  	0.024840 
3442.936560  	0.024709 
3444.865376  	0.024391 
3446.794192  	0.024158 
3448.723008  	0.023987 
3450.651824  	0.023634 
3452.580640  	0.023412 
3454.509456  	0.023317 
3456.438272  	0.023156 
3458.367088  	0.022835 
3460.295904  	0.022572 
3462.224720  	0.022486 
3464.153536  	0.022238 
3466.082352  	0.021870 
3468.011168  	0.021513 
3469.939984  	0.021439 
3471.868800  	0.021347 
3473.797616  	0.021040 
3475.726432  	0.020614 
3477.655248  	0.020290 
3479.584064  	0.020377 
3481.512880  	0.020172 
3483.441696  	0.019578 
3485.370512  	0.019239 
3487.299328  	0.019223 
3489.228144  	0.018902 
3491.156960  	0.018533 
3493.085776  	0.018387 
3495.014592  	0.018208 
3496.943408  	0.017997 
3498.872224  	0.017737 
3500.801040  	0.017507 
3502.729856  	0.017151 
3504.658672  	0.016918 
3506.587488  	0.016522 
3508.516304  	0.016052 
3510.445120  	0.015910 
3512.373936  	0.015960 
3514.302752  	0.015625 
3516.231568  	0.015423 
3518.160384  	0.015227 
3520.089200  	0.015074 
3522.018016  	0.015116 
3523.946832  	0.014816 
3525.875648  	0.014256 
3527.804464  	0.013910 
3529.733280  	0.013726 
3531.662096  	0.013618 
3533.590912  	0.013550 
3535.519728  	0.013605 
3537.448544  	0.013392 
3539.377360  	0.013007 
3541.306176  	0.012766 
3543.234992  	0.012676 
3545.163808  	0.012810 
3547.092624  	0.012732 
3549.021440  	0.012267 
3550.950256  	0.011736 
3552.879072  	0.011502 
3554.807888  	0.011517 
3556.736704  	0.011463 
3558.665520  	0.011276 
3560.594336  	0.010853 
3562.523152  	0.010539 
3564.451968  	0.010460 
3566.380784  	0.010489 
3568.309600  	0.010304 
3570.238416  	0.009573 
3572.167232  	0.008951 
3574.096048  	0.008848 
3576.024864  	0.008964 
3577.953680  	0.008739 
3579.882496  	0.008362 
3581.811312  	0.008202 
3583.740128  	0.008076 
3585.668944  	0.007988 
3587.597760  	0.008190 
3589.526576  	0.007908 
3591.455392  	0.007158 
3593.384208  	0.006932 
3595.313024  	0.006885 
3597.241840  	0.006693 
3599.170656  	0.006226 
3601.099472  	0.005970 
3603.028288  	0.005779 
3604.957104  	0.005389 
3606.885920  	0.005213 
3608.814736  	0.004989 
3610.743552  	0.004695 
3612.672368  	0.004521 
3614.601184  	0.004040 
3616.530000  	0.003646 
3618.458816  	0.003456 
3620.387632  	0.003180 
3622.316448  	0.002544 
3624.245264  	0.002239 
3626.174080  	0.001846 
3628.102896  	0.001578 
3630.031712  	0.001582 
3631.960528  	0.001090 
3633.889344  	0.000897 
3635.818160  	0.000609 
3637.746976  	0.000335 
3639.675792  	0.000049 
3641.604608  	-0.000340 
3643.533424  	-0.000981 
3645.462240  	-0.001566 
3647.391056  	-0.001632 
3649.319872  	-0.001757 
3651.248688  	-0.001875 
3653.177504  	-0.002616 
3655.106320  	-0.003089 
3657.035136  	-0.003454 
3658.963952  	-0.003612 
3660.892768  	-0.003994 
3662.821584  	-0.004304 
3664.750400  	-0.004356 
3666.679216  	-0.004842 
3668.608032  	-0.005252 
3670.536848  	-0.004842 
3672.465664  	-0.004885 
3674.394480  	-0.005510 
3676.323296  	-0.005465 
3678.252112  	-0.004747 
3680.180928  	-0.004540 
3682.109744  	-0.005068 
3684.038560  	-0.005379 
3685.967376  	-0.005386 
3687.896192  	-0.005205 
3689.825008  	-0.004942 
3691.753824  	-0.005084 
3693.682640  	-0.005115 
3695.611456  	-0.004804 
3697.540272  	-0.004433 
3699.469088  	-0.004211 
3701.397904  	-0.003866 
3703.326720  	-0.003607 
3705.255536  	-0.003581 
3707.184352  	-0.003613 
3709.113168  	-0.003623 
3711.041984  	-0.003375 
3712.970800  	-0.003019 
3714.899616  	-0.002947 
3716.828432  	-0.002742 
3718.757248  	-0.002669 
3720.686064  	-0.002964 
3722.614880  	-0.002926 
3724.543696  	-0.002884 
3726.472512  	-0.002731 
3728.401328  	-0.002807 
3730.330144  	-0.003399 
3732.258960  	-0.003675 
3734.187776  	-0.003224 
3736.116592  	-0.002378 
3738.045408  	-0.002571 
3739.974224  	-0.002818 
3741.903040  	-0.002989 
3743.831856  	-0.002488 
3745.760672  	-0.002215 
3747.689488  	-0.002719 
3749.618304  	-0.002643 
3751.547120  	-0.002482 
3753.475936  	-0.002275 
3755.404752  	-0.002435 
3757.333568  	-0.002631 
3759.262384  	-0.002615 
3761.191200  	-0.002298 
3763.120016  	-0.002417 
3765.048832  	-0.002408 
3766.977648  	-0.002617 
3768.906464  	-0.002724 
3770.835280  	-0.002397 
3772.764096  	-0.002545 
3774.692912  	-0.002743 
3776.621728  	-0.002829 
3778.550544  	-0.002618 
3780.479360  	-0.002227 
3782.408176  	-0.002233 
3784.336992  	-0.002434 
3786.265808  	-0.002608 
3788.194624  	-0.002617 
3790.123440  	-0.002517 
3792.052256  	-0.002437 
3793.981072  	-0.002416 
3795.909888  	-0.002456 
3797.838704  	-0.002897 
3799.767520  	-0.003327 
3801.696336  	-0.002785 
3803.625152  	-0.002607 
3805.553968  	-0.002861 
3807.482784  	-0.002706 
3809.411600  	-0.002646 
3811.340416  	-0.002544 
3813.269232  	-0.002692 
3815.198048  	-0.002818 
3817.126864  	-0.002847 
3819.055680  	-0.003134 
3820.984496  	-0.002958 
3822.913312  	-0.002758 
3824.842128  	-0.002886 
3826.770944  	-0.002860 
3828.699760  	-0.003004 
3830.628576  	-0.002961 
3832.557392  	-0.003087 
3834.486208  	-0.003254 
3836.415024  	-0.003228 
3838.343840  	-0.002971 
3840.272656  	-0.002717 
3842.201472  	-0.002531 
3844.130288  	-0.002388 
3846.059104  	-0.002553 
3847.987920  	-0.002764 
3849.916736  	-0.002825 
3851.845552  	-0.002576 
3853.774368  	-0.002140 
3855.703184  	-0.002593 
3857.632000  	-0.002774 
3859.560816  	-0.002749 
3861.489632  	-0.002641 
3863.418448  	-0.002667 
3865.347264  	-0.002730 
3867.276080  	-0.002954 
3869.204896  	-0.002800 
3871.133712  	-0.002551 
3873.062528  	-0.002646 
3874.991344  	-0.002550 
3876.920160  	-0.002653 
3878.848976  	-0.002525 
3880.777792  	-0.002327 
3882.706608  	-0.002593 
3884.635424  	-0.002731 
3886.564240  	-0.002513 
3888.493056  	-0.002674 
3890.421872  	-0.002480 
3892.350688  	-0.002364 
3894.279504  	-0.002571 
3896.208320  	-0.002852 
3898.137136  	-0.002776 
3900.065952  	-0.002361 
3901.994768  	-0.002299 
3903.923584  	-0.002270 
3905.852400  	-0.002291 
3907.781216  	-0.002760 
3909.710032  	-0.002867 
3911.638848  	-0.002648 
3913.567664  	-0.002784 
3915.496480  	-0.002709 
3917.425296  	-0.002459 
3919.354112  	-0.002490 
3921.282928  	-0.002606 
3923.211744  	-0.002720 
3925.140560  	-0.002492 
3927.069376  	-0.002424 
3928.998192  	-0.002480 
3930.927008  	-0.002438 
3932.855824  	-0.002403 
3934.784640  	-0.002493 
3936.713456  	-0.002443 
3938.642272  	-0.002444 
3940.571088  	-0.002504 
3942.499904  	-0.002491 
3944.428720  	-0.002558 
3946.357536  	-0.002595 
3948.286352  	-0.002387 
3950.215168  	-0.002405 
3952.143984  	-0.002606 
3954.072800  	-0.002669 
3956.001616  	-0.002525 
3957.930432  	-0.002514 
3959.859248  	-0.002403 
3961.788064  	-0.002380 
3963.716880  	-0.002525 
3965.645696  	-0.002798 
3967.574512  	-0.002672 
3969.503328  	-0.002528 
3971.432144  	-0.002579 
3973.360960  	-0.002668 
3975.289776  	-0.002664 
3977.218592  	-0.002714 
3979.147408  	-0.002713 
3981.076224  	-0.002584 
3983.005040  	-0.002639 
3984.933856  	-0.002684 
3986.862672  	-0.002646 
3988.791488  	-0.002617 
3990.720304  	-0.002457 
3992.649120  	-0.002474 
3994.577936  	-0.002464 
3996.506752  	-0.002397 
3998.435568  	-0.002475 
4000.364384  	-0.002576 