##TITLE=No Description
##DATA TYPE=INFRARED SPECTRUM
##XUNITS=1/CM
##YUNITS=Abs
399.264912  	0.222836 
401.193728  	0.225629 
403.122544  	0.220687 
405.051360  	0.219202 
406.980176  	0.220214 
408.908992  	0.217061 
410.837808  	0.220369 
412.766624  	0.222644 
414.695440  	0.222038 
416.624256  	0.216266 
418.553072  	0.219929 
420.481888  	0.215794 
422.410704  	0.214527 
424.339520  	0.212224 
426.268336  	0.208382 
428.197152  	0.202132 
430.125968  	0.200484 
432.054784  	0.203851 
433.983600  	0.207269 
435.912416  	0.202450 
437.841232  	0.198183 
439.770048  	0.196752 
441.698864  	0.197685 
443.627680  	0.193263 
445.556496  	0.190992 
447.485312  	0.191240 
449.414128  	0.193556 
451.342944  	0.193404 
453.271760  	0.197187 
455.200576  	0.201049 
457.129392  	0.200079 
459.058208  	0.197217 
460.987024  	0.199718 
462.915840  	0.195792 
464.844656  	0.196690 
466.773472  	0.197082 
468.702288  	0.194020 
470.631104  	0.196222 
472.559920  	0.200400 
474.488736  	0.198695 
476.417552  	0.198741 
478.346368  	0.198058 
480.275184  	0.197391 
482.204000  	0.197005 
484.132816  	0.197592 
486.061632  	0.196963 
487.990448  	0.200208 
489.919264  	0.203739 
491.848080  	0.203071 
493.776896  	0.201171 
495.705712  	0.203484 
497.634528  	0.201820 
499.563344  	0.200961 
501.492160  	0.202816 
503.420976  	0.203238 
505.349792  	0.201802 
507.278608  	0.203380 
509.207424  	0.206256 
511.136240  	0.207065 
513.065056  	0.207129 
514.993872  	0.207512 
516.922688  	0.208024 
518.851504  	0.210793 
520.780320  	0.211922 
522.709136  	0.212351 
524.637952  	0.212169 
526.566768  	0.213225 
528.495584  	0.214537 
530.424400  	0.214216 
532.353216  	0.212650 
534.282032  	0.213919 
536.210848  	0.214487 
538.139664  	0.214432 
540.068480  	0.212084 
541.997296  	0.209779 
543.926112  	0.208996 
545.854928  	0.209936 
547.783744  	0.210295 
549.712560  	0.210714 
551.641376  	0.209259 
553.570192  	0.207944 
555.499008  	0.207585 
557.427824  	0.208652 
559.356640  	0.207233 
561.285456  	0.205849 
563.214272  	0.206014 
565.143088  	0.205329 
567.071904  	0.203526 
569.000720  	0.203073 
570.929536  	0.202283 
572.858352  	0.202652 
574.787168  	0.201430 
576.715984  	0.200379 
578.644800  	0.200277 
580.573616  	0.199967 
582.502432  	0.198206 
584.431248  	0.198042 
586.360064  	0.197633 
588.288880  	0.196446 
590.217696  	0.195115 
592.146512  	0.195000 
594.075328  	0.194283 
596.004144  	0.193464 
597.932960  	0.192883 
599.861776  	0.192378 
601.790592  	0.191716 
603.719408  	0.191943 
605.648224  	0.191216 
607.577040  	0.190957 
609.505856  	0.191151 
611.434672  	0.190961 
613.363488  	0.190135 
615.292304  	0.190135 
617.221120  	0.189096 
619.149936  	0.188598 
621.078752  	0.188354 
623.007568  	0.188352 
624.936384  	0.187838 
626.865200  	0.187386 
628.794016  	0.187210 
630.722832  	0.187112 
632.651648  	0.186875 
634.580464  	0.186558 
636.509280  	0.186324 
638.438096  	0.186854 
640.366912  	0.186895 
642.295728  	0.186667 
644.224544  	0.186020 
646.153360  	0.185279 
648.082176  	0.183244 
650.010992  	0.181951 
651.939808  	0.181314 
653.868624  	0.180154 
655.797440  	0.178238 
657.726256  	0.177242 
659.655072  	0.176077 
661.583888  	0.174159 
663.512704  	0.172723 
665.441520  	0.172491 
667.370336  	0.170113 
669.299152  	0.167334 
671.227968  	0.166822 
673.156784  	0.165866 
675.085600  	0.165296 
677.014416  	0.164442 
678.943232  	0.163006 
680.872048  	0.162040 
682.800864  	0.161266 
684.729680  	0.161330 
686.658496  	0.160906 
688.587312  	0.159916 
690.516128  	0.158671 
692.444944  	0.158062 
694.373760  	0.157375 
696.302576  	0.156867 
698.231392  	0.156128 
700.160208  	0.155179 
702.089024  	0.154007 
704.017840  	0.152891 
705.946656  	0.151348 
707.875472  	0.149985 
709.804288  	0.149000 
711.733104  	0.148264 
713.661920  	0.147584 
715.590736  	0.146563 
717.519552  	0.145738 
719.448368  	0.145483 
721.377184  	0.144949 
723.306000  	0.144897 
725.234816  	0.145096 
727.163632  	0.144534 
729.092448  	0.143328 
731.021264  	0.142468 
732.950080  	0.141618 
734.878896  	0.140486 
736.807712  	0.138886 
738.736528  	0.137868 
740.665344  	0.137302 
742.594160  	0.136490 
744.522976  	0.135083 
746.451792  	0.134418 
748.380608  	0.133756 
750.309424  	0.132945 
752.238240  	0.132281 
754.167056  	0.132125 
756.095872  	0.131775 
758.024688  	0.131008 
759.953504  	0.130248 
761.882320  	0.129842 
763.811136  	0.129158 
765.739952  	0.128266 
767.668768  	0.127661 
769.597584  	0.127170 
771.526400  	0.126563 
773.455216  	0.126217 
775.384032  	0.126392 
777.312848  	0.127036 
779.241664  	0.127707 
781.170480  	0.128057 
783.099296  	0.127083 
785.028112  	0.125349 
786.956928  	0.122994 
788.885744  	0.121004 
790.814560  	0.119245 
792.743376  	0.117564 
794.672192  	0.116647 
796.601008  	0.115862 
798.529824  	0.114477 
800.458640  	0.112842 
802.387456  	0.111224 
804.316272  	0.110004 
806.245088  	0.108936 
808.173904  	0.108141 
810.102720  	0.107503 
812.031536  	0.106786 
813.960352  	0.106004 
815.889168  	0.105418 
817.817984  	0.104652 
819.746800  	0.103967 
821.675616  	0.103492 
823.604432  	0.102789 
825.533248  	0.101932 
827.462064  	0.101160 
829.390880  	0.100118 
831.319696  	0.098787 
833.248512  	0.097674 
835.177328  	0.096957 
837.106144  	0.095537 
839.034960  	0.094166 
840.963776  	0.092963 
842.892592  	0.091532 
844.821408  	0.090148 
846.750224  	0.088892 
848.679040  	0.087623 
850.607856  	0.086486 
852.536672  	0.085487 
854.465488  	0.084558 
856.394304  	0.083404 
858.323120  	0.082349 
860.251936  	0.081090 
862.180752  	0.080060 
864.109568  	0.078857 
866.038384  	0.077843 
867.967200  	0.076882 
869.896016  	0.076020 
871.824832  	0.075416 
873.753648  	0.075298 
875.682464  	0.075202 
877.611280  	0.074743 
879.540096  	0.074139 
881.468912  	0.074169 
883.397728  	0.074182 
885.326544  	0.074036 
887.255360  	0.073578 
889.184176  	0.072689 
891.112992  	0.071546 
893.041808  	0.070828 
894.970624  	0.070076 
896.899440  	0.069038 
898.828256  	0.068049 
900.757072  	0.067150 
902.685888  	0.066568 
904.614704  	0.066089 
906.543520  	0.066065 
908.472336  	0.066588 
910.401152  	0.067241 
912.329968  	0.068042 
914.258784  	0.068977 
916.187600  	0.069707 
918.116416  	0.069995 
920.045232  	0.069981 
921.974048  	0.069775 
923.902864  	0.069477 
925.831680  	0.068906 
927.760496  	0.068512 
929.689312  	0.068299 
931.618128  	0.068096 
933.546944  	0.067680 
935.475760  	0.067337 
937.404576  	0.067175 
939.333392  	0.066852 
941.262208  	0.066729 
943.191024  	0.067081 
945.119840  	0.067753 
947.048656  	0.068535 
948.977472  	0.069707 
950.906288  	0.071158 
952.835104  	0.072619 
954.763920  	0.074155 
956.692736  	0.075497 
958.621552  	0.076681 
960.550368  	0.077140 
962.479184  	0.076912 
964.408000  	0.076059 
966.336816  	0.074653 
968.265632  	0.072437 
970.194448  	0.069714 
972.123264  	0.066516 
974.052080  	0.063129 
975.980896  	0.059655 
977.909712  	0.056200 
979.838528  	0.053264 
981.767344  	0.050794 
983.696160  	0.048932 
985.624976  	0.047572 
987.553792  	0.046798 
989.482608  	0.046746 
991.411424  	0.047065 
993.340240  	0.047547 
995.269056  	0.048538 
997.197872  	0.049920 
999.126688  	0.051170 
1001.055504  	0.052380 
1002.984320  	0.053463 
1004.913136  	0.054701 
1006.841952  	0.055867 
1008.770768  	0.056732 
1010.699584  	0.057368 
1012.628400  	0.057886 
1014.557216  	0.058177 
1016.486032  	0.058270 
1018.414848  	0.058305 
1020.343664  	0.058189 
1022.272480  	0.058089 
1024.201296  	0.057711 
1026.130112  	0.055996 
1028.058928  	0.055030 
1029.987744  	0.056252 
1031.916560  	0.056536 
1033.845376  	0.055919 
1035.774192  	0.054805 
1037.703008  	0.054159 
1039.631824  	0.054899 
1041.560640  	0.055806 
1043.489456  	0.056896 
1045.418272  	0.058979 
1047.347088  	0.062273 
1049.275904  	0.065967 
1051.204720  	0.069448 
1053.133536  	0.072782 
1055.062352  	0.075625 
1056.991168  	0.077656 
1058.919984  	0.080309 
1060.848800  	0.082779 
1062.777616  	0.082954 
1064.706432  	0.080744 
1066.635248  	0.079604 
1068.564064  	0.080734 
1070.492880  	0.080203 
1072.421696  	0.078271 
1074.350512  	0.076559 
1076.279328  	0.075168 
1078.208144  	0.074825 
1080.136960  	0.075668 
1082.065776  	0.076493 
1083.994592  	0.077160 
1085.923408  	0.078082 
1087.852224  	0.078535 
1089.781040  	0.078609 
1091.709856  	0.078767 
1093.638672  	0.078081 
1095.567488  	0.076076 
1097.496304  	0.073436 
1099.425120  	0.070745 
1101.353936  	0.067976 
1103.282752  	0.064906 
1105.211568  	0.061654 
1107.140384  	0.058838 
1109.069200  	0.056305 
1110.998016  	0.053388 
1112.926832  	0.050595 
1114.855648  	0.048221 
1116.784464  	0.045871 
1118.713280  	0.043355 
1120.642096  	0.040750 
1122.570912  	0.038313 
1124.499728  	0.036148 
1126.428544  	0.034066 
1128.357360  	0.032176 
1130.286176  	0.030341 
1132.214992  	0.028732 
1134.143808  	0.027404 
1136.072624  	0.026136 
1138.001440  	0.024843 
1139.930256  	0.023766 
1141.859072  	0.022614 
1143.787888  	0.021396 
1145.716704  	0.020235 
1147.645520  	0.019259 
1149.574336  	0.018703 
1151.503152  	0.018056 
1153.431968  	0.017596 
1155.360784  	0.017324 
1157.289600  	0.017086 
1159.218416  	0.016990 
1161.147232  	0.017292 
1163.076048  	0.017618 
1165.004864  	0.017902 
1166.933680  	0.018183 
1168.862496  	0.018582 
1170.791312  	0.019088 
1172.720128  	0.019568 
1174.648944  	0.020045 
1176.577760  	0.020484 
1178.506576  	0.021095 
1180.435392  	0.021628 
1182.364208  	0.022336 
1184.293024  	0.023061 
1186.221840  	0.023511 
1188.150656  	0.024293 
1190.079472  	0.025310 
1192.008288  	0.026523 
1193.937104  	0.027917 
1195.865920  	0.029581 
1197.794736  	0.031302 
1199.723552  	0.033273 
1201.652368  	0.035355 
1203.581184  	0.037661 
1205.510000  	0.039793 
1207.438816  	0.042141 
1209.367632  	0.044544 
1211.296448  	0.046379 
1213.225264  	0.048192 
1215.154080  	0.049952 
1217.082896  	0.051512 
1219.011712  	0.052709 
1220.940528  	0.053815 
1222.869344  	0.054760 
1224.798160  	0.055673 
1226.726976  	0.056397 
1228.655792  	0.057037 
1230.584608  	0.057501 
1232.513424  	0.058057 
1234.442240  	0.058485 
1236.371056  	0.058380 
1238.299872  	0.057674 
1240.228688  	0.055879 
1242.157504  	0.054159 
1244.086320  	0.053129 
1246.015136  	0.051317 
1247.943952  	0.048707 
1249.872768  	0.045977 
1251.801584  	0.043907 
1253.730400  	0.041704 
1255.659216  	0.039455 
1257.588032  	0.037320 
1259.516848  	0.035305 
1261.445664  	0.033299 
1263.374480  	0.031630 
1265.303296  	0.030233 
1267.232112  	0.029010 
1269.160928  	0.027995 
1271.089744  	0.027320 
1273.018560  	0.027008 
1274.947376  	0.026771 
1276.876192  	0.026577 
1278.805008  	0.026263 
1280.733824  	0.025582 
1282.662640  	0.024661 
1284.591456  	0.023794 
1286.520272  	0.022844 
1288.449088  	0.022057 
1290.377904  	0.021655 
1292.306720  	0.021111 
1294.235536  	0.020378 
1296.164352  	0.019461 
1298.093168  	0.018323 
1300.021984  	0.017174 
1301.950800  	0.016123 
1303.879616  	0.015046 
1305.808432  	0.014011 
1307.737248  	0.013109 
1309.666064  	0.012394 
1311.594880  	0.011983 
1313.523696  	0.011652 
1315.452512  	0.011371 
1317.381328  	0.011317 
1319.310144  	0.011267 
1321.238960  	0.011321 
1323.167776  	0.011573 
1325.096592  	0.011692 
1327.025408  	0.011850 
1328.954224  	0.011929 
1330.883040  	0.011669 
1332.811856  	0.011355 
1334.740672  	0.010981 
1336.669488  	0.010794 
1338.598304  	0.010842 
1340.527120  	0.010522 
1342.455936  	0.009962 
1344.384752  	0.009817 
1346.313568  	0.009861 
1348.242384  	0.010164 
1350.171200  	0.010606 
1352.100016  	0.011150 
1354.028832  	0.011724 
1355.957648  	0.012432 
1357.886464  	0.013154 
1359.815280  	0.013696 
1361.744096  	0.014401 
1363.672912  	0.014924 
1365.601728  	0.014830 
1367.530544  	0.014805 
1369.459360  	0.014895 
1371.388176  	0.014677 
1373.316992  	0.014549 
1375.245808  	0.014143 
1377.174624  	0.013098 
1379.103440  	0.011732 
1381.032256  	0.010267 
1382.961072  	0.009201 
1384.889888  	0.008620 
1386.818704  	0.008603 
1388.747520  	0.008327 
1390.676336  	0.007117 
1392.605152  	0.005184 
1394.533968  	0.004851 
1396.462784  	0.006547 
1398.391600  	0.007075 
1400.320416  	0.006896 
1402.249232  	0.006324 
1404.178048  	0.006371 
1406.106864  	0.006696 
1408.035680  	0.007045 
1409.964496  	0.007839 
1411.893312  	0.009148 
1413.822128  	0.010209 
1415.750944  	0.011292 
1417.679760  	0.012431 
1419.608576  	0.013193 
1421.537392  	0.013000 
1423.466208  	0.012875 
1425.395024  	0.012438 
1427.323840  	0.011768 
1429.252656  	0.011521 
1431.181472  	0.011454 
1433.110288  	0.011300 
1435.039104  	0.011452 
1436.967920  	0.012086 
1438.896736  	0.012024 
1440.825552  	0.011943 
1442.754368  	0.012088 
1444.683184  	0.012111 
1446.612000  	0.012370 
1448.540816  	0.012782 
1450.469632  	0.012964 
1452.398448  	0.013140 
1454.327264  	0.013346 
1456.256080  	0.014035 
1458.184896  	0.014525 
1460.113712  	0.014376 
1462.042528  	0.014256 
1463.971344  	0.014380 
1465.900160  	0.015200 
1467.828976  	0.015816 
1469.757792  	0.016371 
1471.686608  	0.017617 
1473.615424  	0.019481 
1475.544240  	0.020323 
1477.473056  	0.021034 
1479.401872  	0.021458 
1481.330688  	0.022010 
1483.259504  	0.022175 
1485.188320  	0.022312 
1487.117136  	0.022407 
1489.045952  	0.022234 
1490.974768  	0.021237 
1492.903584  	0.019875 
1494.832400  	0.018580 
1496.761216  	0.017472 
1498.690032  	0.016097 
1500.618848  	0.014761 
1502.547664  	0.013599 
1504.476480  	0.012483 
1506.405296  	0.012138 
1508.334112  	0.012619 
1510.262928  	0.011683 
1512.191744  	0.010803 
1514.120560  	0.010391 
1516.049376  	0.010738 
1517.978192  	0.011000 
1519.907008  	0.010946 
1521.835824  	0.012206 
1523.764640  	0.013138 
1525.693456  	0.013704 
1527.622272  	0.014431 
1529.551088  	0.014721 
1531.479904  	0.014718 
1533.408720  	0.014810 
1535.337536  	0.014068 
1537.266352  	0.012679 
1539.195168  	0.011616 
1541.123984  	0.011246 
1543.052800  	0.010967 
1544.981616  	0.010411 
1546.910432  	0.009657 
1548.839248  	0.009445 
1550.768064  	0.009740 
1552.696880  	0.009542 
1554.625696  	0.009624 
1556.554512  	0.009249 
1558.483328  	0.010404 
1560.412144  	0.011894 
1562.340960  	0.012029 
1564.269776  	0.012936 
1566.198592  	0.014265 
1568.127408  	0.015010 
1570.056224  	0.017035 
1571.985040  	0.018495 
1573.913856  	0.019118 
1575.842672  	0.020010 
1577.771488  	0.020899 
1579.700304  	0.020617 
1581.629120  	0.020457 
1583.557936  	0.020299 
1585.486752  	0.020706 
1587.415568  	0.021521 
1589.344384  	0.022824 
1591.273200  	0.024395 
1593.202016  	0.026422 
1595.130832  	0.028224 
1597.059648  	0.029933 
1598.988464  	0.031482 
1600.917280  	0.032868 
1602.846096  	0.033502 
1604.774912  	0.034132 
1606.703728  	0.034426 
1608.632544  	0.034101 
1610.561360  	0.033586 
1612.490176  	0.033525 
1614.418992  	0.032807 
1616.347808  	0.032894 
1618.276624  	0.034181 
1620.205440  	0.034916 
1622.134256  	0.035804 
1624.063072  	0.038385 
1625.991888  	0.040476 
1627.920704  	0.043015 
1629.849520  	0.045803 
1631.778336  	0.048231 
1633.707152  	0.050206 
1635.635968  	0.053828 
1637.564784  	0.057434 
1639.493600  	0.059431 
1641.422416  	0.061339 
1643.351232  	0.062809 
1645.280048  	0.063780 
1647.208864  	0.065922 
1649.137680  	0.066495 
1651.066496  	0.065441 
1652.995312  	0.065966 
1654.924128  	0.067316 
1656.852944  	0.065980 
1658.781760  	0.065289 
1660.710576  	0.064683 
1662.639392  	0.064097 
1664.568208  	0.063509 
1666.497024  	0.062632 
1668.425840  	0.061724 
1670.354656  	0.061533 
1672.283472  	0.060726 
1674.212288  	0.059920 
1676.141104  	0.060342 
1678.069920  	0.060476 
1679.998736  	0.060570 
1681.927552  	0.060560 
1683.856368  	0.061339 
1685.785184  	0.062415 
1687.714000  	0.062049 
1689.642816  	0.062103 
1691.571632  	0.061627 
1693.500448  	0.060825 
1695.429264  	0.060403 
1697.358080  	0.059888 
1699.286896  	0.058530 
1701.215712  	0.057762 
1703.144528  	0.056156 
1705.073344  	0.054478 
1707.002160  	0.052500 
1708.930976  	0.050301 
1710.859792  	0.047957 
1712.788608  	0.045527 
1714.717424  	0.042808 
1716.646240  	0.039452 
1718.575056  	0.035854 
1720.503872  	0.032501 
1722.432688  	0.029357 
1724.361504  	0.026138 
1726.290320  	0.023329 
1728.219136  	0.020613 
1730.147952  	0.018339 
1732.076768  	0.016337 
1734.005584  	0.014692 
1735.934400  	0.012480 
1737.863216  	0.010727 
1739.792032  	0.009044 
1741.720848  	0.008132 
1743.649664  	0.007409 
1745.578480  	0.006455 
1747.507296  	0.005622 
1749.436112  	0.005145 
1751.364928  	0.004622 
1753.293744  	0.003922 
1755.222560  	0.003260 
1757.151376  	0.003056 
1759.080192  	0.002443 
1761.009008  	0.002371 
1762.937824  	0.002336 
1764.866640  	0.001915 
1766.795456  	0.001634 
1768.724272  	0.001754 
1770.653088  	0.001202 
1772.581904  	0.000977 
1774.510720  	0.000965 
1776.439536  	0.001014 
1778.368352  	0.000885 
1780.297168  	0.001074 
1782.225984  	0.000899 
1784.154800  	0.000861 
1786.083616  	0.000784 
1788.012432  	0.000473 
1789.941248  	0.000223 
1791.870064  	0.000457 
1793.798880  	0.000508 
1795.727696  	0.000375 
1797.656512  	-0.000090 
1799.585328  	-0.000190 
1801.514144  	0.000116 
1803.442960  	0.000298 
1805.371776  	0.000014 
1807.300592  	-0.000119 
1809.229408  	-0.000252 
1811.158224  	-0.000233 
1813.087040  	-0.000377 
1815.015856  	-0.000775 
1816.944672  	-0.000741 
1818.873488  	-0.000429 
1820.802304  	-0.000336 
1822.731120  	-0.000251 
1824.659936  	-0.000166 
1826.588752  	-0.000021 
1828.517568  	-0.000304 
1830.446384  	-0.000405 
1832.375200  	-0.000491 
1834.304016  	-0.000351 
1836.232832  	-0.000511 
1838.161648  	-0.000526 
1840.090464  	-0.000728 
1842.019280  	-0.000850 
1843.948096  	-0.000698 
1845.876912  	-0.000360 
1847.805728  	-0.000475 
1849.734544  	-0.000554 
1851.663360  	-0.001115 
1853.592176  	-0.001006 
1855.520992  	-0.000843 
1857.449808  	-0.000715 
1859.378624  	-0.000918 
1861.307440  	-0.000874 
1863.236256  	-0.000825 
1865.165072  	-0.000787 
1867.093888  	-0.000899 
1869.022704  	-0.000770 
1870.951520  	-0.000927 
1872.880336  	-0.001061 
1874.809152  	-0.000900 
1876.737968  	-0.000848 
1878.666784  	-0.000801 
1880.595600  	-0.000690 
1882.524416  	-0.000919 
1884.453232  	-0.000921 
1886.382048  	-0.001122 
1888.310864  	-0.001136 
1890.239680  	-0.001322 
1892.168496  	-0.001398 
1894.097312  	-0.001288 
1896.026128  	-0.001195 
1897.954944  	-0.001170 
1899.883760  	-0.001113 
1901.812576  	-0.001393 
1903.741392  	-0.001068 
1905.670208  	-0.000901 
1907.599024  	-0.001324 
1909.527840  	-0.001373 
1911.456656  	-0.001132 
1913.385472  	-0.001149 
1915.314288  	-0.001135 
1917.243104  	-0.001206 
1919.171920  	-0.000999 
1921.100736  	-0.001081 
1923.029552  	-0.001217 
1924.958368  	-0.001106 
1926.887184  	-0.000939 
1928.816000  	-0.001337 
1930.744816  	-0.001237 
1932.673632  	-0.000935 
1934.602448  	-0.000491 
1936.531264  	-0.000841 
1938.460080  	-0.001274 
1940.388896  	-0.001750 
1942.317712  	-0.001556 
1944.246528  	-0.001852 
1946.175344  	-0.001582 
1948.104160  	-0.001089 
1950.032976  	-0.000519 
1951.961792  	-0.001684 
1953.890608  	-0.001934 
1955.819424  	-0.001644 
1957.748240  	-0.001979 
1959.677056  	-0.002101 
1961.605872  	-0.001839 
1963.534688  	-0.001256 
1965.463504  	-0.001866 
1967.392320  	-0.002934 
1969.321136  	-0.002828 
1971.249952  	-0.002465 
1973.178768  	-0.002817 
1975.107584  	-0.002808 
1977.036400  	-0.000203 
1978.965216  	0.001716 
1980.894032  	0.000948 
1982.822848  	-0.000476 
1984.751664  	-0.000702 
1986.680480  	-0.000895 
1988.609296  	-0.000600 
1990.538112  	-0.000667 
1992.466928  	-0.000292 
1994.395744  	-0.001356 
1996.324560  	-0.002149 
1998.253376  	-0.001375 
2000.182192  	-0.000538 
2002.111008  	-0.000869 
2004.039824  	-0.000371 
2005.968640  	0.000330 
2007.897456  	0.000251 
2009.826272  	-0.000302 
2011.755088  	0.000544 
2013.683904  	-0.000182 
2015.612720  	-0.001676 
2017.541536  	-0.001006 
2019.470352  	0.000491 
2021.399168  	0.000110 
2023.327984  	0.000207 
2025.256800  	-0.001011 
2027.185616  	-0.002023 
2029.114432  	-0.001220 
2031.043248  	-0.000787 
2032.972064  	-0.000874 
2034.900880  	-0.000557 
2036.829696  	-0.000956 
2038.758512  	-0.000632 
2040.687328  	-0.000783 
2042.616144  	-0.001493 
2044.544960  	-0.001168 
2046.473776  	-0.000353 
2048.402592  	0.000559 
2050.331408  	0.001056 
2052.260224  	0.000200 
2054.189040  	-0.000046 
2056.117856  	-0.000808 
2058.046672  	-0.001238 
2059.975488  	-0.000863 
2061.904304  	-0.000847 
2063.833120  	-0.000568 
2065.761936  	-0.000515 
2067.690752  	-0.001429 
2069.619568  	-0.001198 
2071.548384  	-0.000317 
2073.477200  	-0.000243 
2075.406016  	-0.000906 
2077.334832  	-0.001451 
2079.263648  	-0.001545 
2081.192464  	-0.001222 
2083.121280  	-0.000855 
2085.050096  	-0.000564 
2086.978912  	-0.000322 
2088.907728  	-0.000144 
2090.836544  	-0.000569 
2092.765360  	-0.001165 
2094.694176  	-0.001275 
2096.622992  	-0.000889 
2098.551808  	-0.000583 
2100.480624  	-0.000376 
2102.409440  	-0.000197 
2104.338256  	0.000052 
2106.267072  	0.000297 
2108.195888  	0.000401 
2110.124704  	-0.000453 
2112.053520  	-0.000991 
2113.982336  	-0.001169 
2115.911152  	-0.000928 
2117.839968  	-0.001127 
2119.768784  	-0.001640 
2121.697600  	-0.002011 
2123.626416  	-0.001614 
2125.555232  	-0.001869 
2127.484048  	-0.001918 
2129.412864  	-0.001733 
2131.341680  	-0.002161 
2133.270496  	-0.002491 
2135.199312  	-0.002319 
2137.128128  	-0.002364 
2139.056944  	-0.002230 
2140.985760  	-0.001995 
2142.914576  	-0.001400 
2144.843392  	-0.002355 
2146.772208  	-0.003269 
2148.701024  	-0.003090 
2150.629840  	-0.002784 
2152.558656  	-0.003737 
2154.487472  	-0.004380 
2156.416288  	-0.003960 
2158.345104  	-0.002814 
2160.273920  	0.000081 
2162.202736  	0.000892 
2164.131552  	0.000041 
2166.060368  	0.001151 
2167.989184  	0.001608 
2169.918000  	0.000663 
2171.846816  	-0.000196 
2173.775632  	0.000011 
2175.704448  	0.000228 
2177.633264  	0.000418 
2179.562080  	-0.000215 
2181.490896  	0.000888 
2183.419712  	0.002324 
2185.348528  	0.001023 
2187.277344  	0.000160 
2189.206160  	0.000444 
2191.134976  	0.000325 
2193.063792  	0.000208 
2194.992608  	0.000429 
2196.921424  	-0.000203 
2198.850240  	-0.000992 
2200.779056  	0.000609 
2202.707872  	0.001346 
2204.636688  	0.000517 
2206.565504  	-0.000159 
2208.494320  	-0.000374 
2210.423136  	0.000301 
2212.351952  	0.001177 
2214.280768  	0.000876 
2216.209584  	0.000336 
2218.138400  	0.000234 
2220.067216  	0.000255 
2221.996032  	-0.000035 
2223.924848  	-0.000308 
2225.853664  	-0.000359 
2227.782480  	-0.000514 
2229.711296  	-0.000238 
2231.640112  	-0.000012 
2233.568928  	-0.000680 
2235.497744  	-0.000818 
2237.426560  	0.000003 
2239.355376  	0.000258 
2241.284192  	-0.000132 
2243.213008  	0.000397 
2245.141824  	0.000279 
2247.070640  	-0.000602 
2248.999456  	-0.001169 
2250.928272  	-0.001031 
2252.857088  	-0.000522 
2254.785904  	0.000020 
2256.714720  	-0.000544 
2258.643536  	-0.000817 
2260.572352  	-0.000457 
2262.501168  	-0.000651 
2264.429984  	-0.000610 
2266.358800  	-0.000658 
2268.287616  	-0.000652 
2270.216432  	-0.000201 
2272.145248  	0.000077 
2274.074064  	0.000220 
2276.002880  	0.000419 
2277.931696  	0.000474 
2279.860512  	0.000413 
2281.789328  	0.000921 
2283.718144  	0.001093 
2285.646960  	0.000983 
2287.575776  	0.000624 
2289.504592  	0.000337 
2291.433408  	0.000076 
2293.362224  	-0.000176 
2295.291040  	-0.000390 
2297.219856  	-0.000470 
2299.148672  	-0.000707 
2301.077488  	-0.000891 
2303.006304  	-0.001106 
2304.935120  	-0.001372 
2306.863936  	-0.001687 
2308.792752  	-0.001895 
2310.721568  	-0.002204 
2312.650384  	-0.002497 
2314.579200  	-0.003151 
2316.508016  	-0.003697 
2318.436832  	-0.004446 
2320.365648  	-0.004979 
2322.294464  	-0.005240 
2324.223280  	-0.006073 
2326.152096  	-0.007480 
2328.080912  	-0.008730 
2330.009728  	-0.009601 
2331.938544  	-0.009985 
2333.867360  	-0.010087 
2335.796176  	-0.010586 
2337.724992  	-0.011366 
2339.653808  	-0.011342 
2341.582624  	-0.011729 
2343.511440  	-0.011353 
2345.440256  	-0.009099 
2347.369072  	-0.006722 
2349.297888  	-0.006509 
2351.226704  	-0.008354 
2353.155520  	-0.010690 
2355.084336  	-0.012620 
2357.013152  	-0.014435 
2358.941968  	-0.015459 
2360.870784  	-0.015735 
2362.799600  	-0.015417 
2364.728416  	-0.014533 
2366.657232  	-0.013307 
2368.586048  	-0.011260 
2370.514864  	-0.008886 
2372.443680  	-0.007140 
2374.372496  	-0.005327 
2376.301312  	-0.003826 
2378.230128  	-0.002524 
2380.158944  	-0.001637 
2382.087760  	-0.001234 
2384.016576  	-0.000864 
2385.945392  	-0.000458 
2387.874208  	-0.000338 
2389.803024  	-0.000429 
2391.731840  	-0.000476 
2393.660656  	-0.000160 
2395.589472  	0.000027 
2397.518288  	0.000122 
2399.447104  	0.000013 
2401.375920  	-0.000137 
2403.304736  	-0.000239 
2405.233552  	-0.000151 
2407.162368  	-0.000191 
2409.091184  	-0.000122 
2411.020000  	0.000011 
2412.948816  	0.000047 
2414.877632  	-0.000109 
2416.806448  	-0.000139 
2418.735264  	0.000058 
2420.664080  	0.000018 
2422.592896  	-0.000038 
2424.521712  	-0.000112 
2426.450528  	-0.000094 
2428.379344  	0.000101 
2430.308160  	0.000251 
2432.236976  	0.000105 
2434.165792  	-0.000083 
2436.094608  	0.000122 
2438.023424  	0.000361 
2439.952240  	0.000491 
2441.881056  	0.000390 
2443.809872  	0.000335 
2445.738688  	0.000505 
2447.667504  	0.000598 
2449.596320  	0.000540 
2451.525136  	0.000563 
2453.453952  	0.000610 
2455.382768  	0.000539 
2457.311584  	0.000633 
2459.240400  	0.000850 
2461.169216  	0.000887 
2463.098032  	0.000730 
2465.026848  	0.000729 
2466.955664  	0.000696 
2468.884480  	0.000492 
2470.813296  	0.000532 
2472.742112  	0.000709 
2474.670928  	0.000970 
2476.599744  	0.000754 
2478.528560  	0.000803 
2480.457376  	0.000985 
2482.386192  	0.000953 
2484.315008  	0.000932 
2486.243824  	0.000639 
2488.172640  	0.000687 
2490.101456  	0.001039 
2492.030272  	0.000927 
2493.959088  	0.000589 
2495.887904  	0.000747 
2497.816720  	0.001021 
2499.745536  	0.000901 
2501.674352  	0.000836 
2503.603168  	0.000990 
2505.531984  	0.001034 
2507.460800  	0.000991 
2509.389616  	0.001321 
2511.318432  	0.001415 
2513.247248  	0.001112 
2515.176064  	0.001116 
2517.104880  	0.001158 
2519.033696  	0.001285 
2520.962512  	0.001290 
2522.891328  	0.001242 
2524.820144  	0.001343 
2526.748960  	0.001393 
2528.677776  	0.001442 
2530.606592  	0.001400 
2532.535408  	0.001477 
2534.464224  	0.001509 
2536.393040  	0.001614 
2538.321856  	0.001730 
2540.250672  	0.001864 
2542.179488  	0.002031 
2544.108304  	0.002044 
2546.037120  	0.001728 
2547.965936  	0.001687 
2549.894752  	0.001984 
2551.823568  	0.002145 
2553.752384  	0.001910 
2555.681200  	0.001804 
2557.610016  	0.001908 
2559.538832  	0.002223 
2561.467648  	0.002225 
2563.396464  	0.002132 
2565.325280  	0.002195 
2567.254096  	0.002400 
2569.182912  	0.002318 
2571.111728  	0.002275 
2573.040544  	0.002273 
2574.969360  	0.002017 
2576.898176  	0.001939 
2578.826992  	0.002266 
2580.755808  	0.002328 
2582.684624  	0.002421 
2584.613440  	0.002689 
2586.542256  	0.002622 
2588.471072  	0.002522 
2590.399888  	0.002570 
2592.328704  	0.002391 
2594.257520  	0.002353 
2596.186336  	0.002485 
2598.115152  	0.002763 
2600.043968  	0.002998 
2601.972784  	0.002972 
2603.901600  	0.003007 
2605.830416  	0.003130 
2607.759232  	0.003044 
2609.688048  	0.002855 
2611.616864  	0.002867 
2613.545680  	0.002993 
2615.474496  	0.003136 
2617.403312  	0.003211 
2619.332128  	0.003179 
2621.260944  	0.003219 
2623.189760  	0.003367 
2625.118576  	0.003453 
2627.047392  	0.003460 
2628.976208  	0.003579 
2630.905024  	0.003640 
2632.833840  	0.003667 
2634.762656  	0.003533 
2636.691472  	0.003578 
2638.620288  	0.003822 
2640.549104  	0.003920 
2642.477920  	0.003935 
2644.406736  	0.003911 
2646.335552  	0.003952 
2648.264368  	0.003970 
2650.193184  	0.004139 
2652.122000  	0.004291 
2654.050816  	0.004167 
2655.979632  	0.004009 
2657.908448  	0.003975 
2659.837264  	0.004088 
2661.766080  	0.004040 
2663.694896  	0.003841 
2665.623712  	0.003743 
2667.552528  	0.003766 
2669.481344  	0.003848 
2671.410160  	0.003910 
2673.338976  	0.003895 
2675.267792  	0.003895 
2677.196608  	0.004090 
2679.125424  	0.004208 
2681.054240  	0.004171 
2682.983056  	0.004320 
2684.911872  	0.004285 
2686.840688  	0.004112 
2688.769504  	0.004137 
2690.698320  	0.004230 
2692.627136  	0.004411 
2694.555952  	0.004551 
2696.484768  	0.004543 
2698.413584  	0.004470 
2700.342400  	0.004424 
2702.271216  	0.004547 
2704.200032  	0.004579 
2706.128848  	0.004570 
2708.057664  	0.004637 
2709.986480  	0.004746 
2711.915296  	0.004838 
2713.844112  	0.004836 
2715.772928  	0.004768 
2717.701744  	0.004880 
2719.630560  	0.005057 
2721.559376  	0.005114 
2723.488192  	0.005158 
2725.417008  	0.005264 
2727.345824  	0.005282 
2729.274640  	0.005346 
2731.203456  	0.005340 
2733.132272  	0.005317 
2735.061088  	0.005327 
2736.989904  	0.005309 
2738.918720  	0.005244 
2740.847536  	0.005246 
2742.776352  	0.005341 
2744.705168  	0.005426 
2746.633984  	0.005435 
2748.562800  	0.005404 
2750.491616  	0.005413 
2752.420432  	0.005461 
2754.349248  	0.005473 
2756.278064  	0.005603 
2758.206880  	0.005752 
2760.135696  	0.005770 
2762.064512  	0.005777 
2763.993328  	0.005777 
2765.922144  	0.005822 
2767.850960  	0.005800 
2769.779776  	0.005734 
2771.708592  	0.005793 
2773.637408  	0.005855 
2775.566224  	0.005773 
2777.495040  	0.005801 
2779.423856  	0.005977 
2781.352672  	0.006031 
2783.281488  	0.006056 
2785.210304  	0.006011 
2787.139120  	0.005957 
2789.067936  	0.005916 
2790.996752  	0.006010 
2792.925568  	0.006109 
2794.854384  	0.006107 
2796.783200  	0.006162 
2798.712016  	0.006155 
2800.640832  	0.006204 
2802.569648  	0.006160 
2804.498464  	0.006150 
2806.427280  	0.006203 
2808.356096  	0.006276 
2810.284912  	0.006278 
2812.213728  	0.006324 
2814.142544  	0.006500 
2816.071360  	0.006505 
2818.000176  	0.006435 
2819.928992  	0.006351 
2821.857808  	0.006472 
2823.786624  	0.006576 
2825.715440  	0.006671 
2827.644256  	0.006755 
2829.573072  	0.006847 
2831.501888  	0.007010 
2833.430704  	0.007173 
2835.359520  	0.007269 
2837.288336  	0.007213 
2839.217152  	0.007009 
2841.145968  	0.006813 
2843.074784  	0.006735 
2845.003600  	0.006980 
2846.932416  	0.007407 
2848.861232  	0.007807 
2850.790048  	0.007656 
2852.718864  	0.006822 
2854.647680  	0.005998 
2856.576496  	0.005367 
2858.505312  	0.004834 
2860.434128  	0.004348 
2862.362944  	0.003900 
2864.291760  	0.003579 
2866.220576  	0.003359 
2868.149392  	0.003235 
2870.078208  	0.003171 
2872.007024  	0.003156 
2873.935840  	0.003095 
2875.864656  	0.002982 
2877.793472  	0.002793 
2879.722288  	0.002588 
2881.651104  	0.002356 
2883.579920  	0.002014 
2885.508736  	0.001871 
2887.437552  	0.002013 
2889.366368  	0.002142 
2891.295184  	0.002176 
2893.224000  	0.002172 
2895.152816  	0.002204 
2897.081632  	0.002070 
2899.010448  	0.001286 
2900.939264  	0.000694 
2902.868080  	0.001504 
2904.796896  	0.002381 
2906.725712  	0.003046 
2908.654528  	0.003620 
2910.583344  	0.004033 
2912.512160  	0.004957 
2914.440976  	0.006551 
2916.369792  	0.007713 
2918.298608  	0.007880 
2920.227424  	0.007671 
2922.156240  	0.007450 
2924.085056  	0.007421 
2926.013872  	0.007415 
2927.942688  	0.007320 
2929.871504  	0.007156 
2931.800320  	0.007032 
2933.729136  	0.006989 
2935.657952  	0.006822 
2937.586768  	0.006660 
2939.515584  	0.006566 
2941.444400  	0.006559 
2943.373216  	0.006638 
2945.302032  	0.006752 
2947.230848  	0.006961 
2949.159664  	0.007026 
2951.088480  	0.006757 
2953.017296  	0.006480 
2954.946112  	0.006159 
2956.874928  	0.005716 
2958.803744  	0.005201 
2960.732560  	0.004701 
2962.661376  	0.004088 
2964.590192  	0.003309 
2966.519008  	0.002358 
2968.447824  	0.001475 
2970.376640  	0.001001 
2972.305456  	0.000617 
2974.234272  	0.000420 
2976.163088  	0.000330 
2978.091904  	0.000048 
2980.020720  	-0.000107 
2981.949536  	0.000032 
2983.878352  	-0.000175 
2985.807168  	-0.000905 
2987.735984  	-0.001484 
2989.664800  	-0.001251 
2991.593616  	0.000300 
2993.522432  	0.001292 
2995.451248  	0.001596 
2997.380064  	0.001951 
2999.308880  	0.002530 
3001.237696  	0.003196 
3003.166512  	0.003921 
3005.095328  	0.004754 
3007.024144  	0.005359 
3008.952960  	0.005909 
3010.881776  	0.006746 
3012.810592  	0.007520 
3014.739408  	0.008230 
3016.668224  	0.008721 
3018.597040  	0.009128 
3020.525856  	0.009607 
3022.454672  	0.010191 
3024.383488  	0.010798 
3026.312304  	0.011279 
3028.241120  	0.011593 
3030.169936  	0.011970 
3032.098752  	0.012434 
3034.027568  	0.012763 
3035.956384  	0.013155 
3037.885200  	0.013446 
3039.814016  	0.013666 
3041.742832  	0.013858 
3043.671648  	0.014099 
3045.600464  	0.014548 
3047.529280  	0.014904 
3049.458096  	0.015024 
3051.386912  	0.014950 
3053.315728  	0.014827 
3055.244544  	0.014976 
3057.173360  	0.015322 
3059.102176  	0.015552 
3061.030992  	0.015718 
3062.959808  	0.015967 
3064.888624  	0.016259 
3066.817440  	0.016421 
3068.746256  	0.016547 
3070.675072  	0.016783 
3072.603888  	0.017031 
3074.532704  	0.017097 
3076.461520  	0.017216 
3078.390336  	0.017412 
3080.319152  	0.017609 
3082.247968  	0.017794 
3084.176784  	0.018011 
3086.105600  	0.018272 
3088.034416  	0.018539 
3089.963232  	0.018669 
3091.892048  	0.018833 
3093.820864  	0.019034 
3095.749680  	0.019309 
3097.678496  	0.019495 
3099.607312  	0.019635 
3101.536128  	0.019888 
3103.464944  	0.020304 
3105.393760  	0.020432 
3107.322576  	0.020442 
3109.251392  	0.020671 
3111.180208  	0.020825 
3113.109024  	0.020972 
3115.037840  	0.021097 
3116.966656  	0.021323 
3118.895472  	0.021464 
3120.824288  	0.021504 
3122.753104  	0.021690 
3124.681920  	0.021936 
3126.610736  	0.022149 
3128.539552  	0.022312 
3130.468368  	0.022410 
3132.397184  	0.022576 
3134.326000  	0.022702 
3136.254816  	0.022763 
3138.183632  	0.022867 
3140.112448  	0.023019 
3142.041264  	0.023341 
3143.970080  	0.023712 
3145.898896  	0.023708 
3147.827712  	0.023707 
3149.756528  	0.023863 
3151.685344  	0.024011 
3153.614160  	0.024169 
3155.542976  	0.024302 
3157.471792  	0.024523 
3159.400608  	0.024901 
3161.329424  	0.024934 
3163.258240  	0.024749 
3165.187056  	0.025060 
3167.115872  	0.025364 
3169.044688  	0.025492 
3170.973504  	0.025660 
3172.902320  	0.025891 
3174.831136  	0.026006 
3176.759952  	0.026005 
3178.688768  	0.026005 
3180.617584  	0.026287 
3182.546400  	0.026468 
3184.475216  	0.026526 
3186.404032  	0.026684 
3188.332848  	0.026735 
3190.261664  	0.026552 
3192.190480  	0.026544 
3194.119296  	0.026716 
3196.048112  	0.026716 
3197.976928  	0.026753 
3199.905744  	0.026773 
3201.834560  	0.026826 
3203.763376  	0.026826 
3205.692192  	0.026854 
3207.621008  	0.026825 
3209.549824  	0.026761 
3211.478640  	0.026646 
3213.407456  	0.026676 
3215.336272  	0.026735 
3217.265088  	0.026522 
3219.193904  	0.026353 
3221.122720  	0.026431 
3223.051536  	0.026364 
3224.980352  	0.026050 
3226.909168  	0.025958 
3228.837984  	0.026096 
3230.766800  	0.026029 
3232.695616  	0.025887 
3234.624432  	0.025840 
3236.553248  	0.025916 
3238.482064  	0.026066 
3240.410880  	0.026017 
3242.339696  	0.025809 
3244.268512  	0.025794 
3246.197328  	0.025860 
3248.126144  	0.025812 
3250.054960  	0.025904 
3251.983776  	0.026009 
3253.912592  	0.026026 
3255.841408  	0.025990 
3257.770224  	0.025959 
3259.699040  	0.026084 
3261.627856  	0.026130 
3263.556672  	0.026222 
3265.485488  	0.026391 
3267.414304  	0.026268 
3269.343120  	0.026186 
3271.271936  	0.026120 
3273.200752  	0.026359 
3275.129568  	0.026695 
3277.058384  	0.026828 
3278.987200  	0.026863 
3280.916016  	0.026842 
3282.844832  	0.026739 
3284.773648  	0.026970 
3286.702464  	0.027291 
3288.631280  	0.027174 
3290.560096  	0.027078 
3292.488912  	0.027283 
3294.417728  	0.027578 
3296.346544  	0.027648 
3298.275360  	0.027687 
3300.204176  	0.027896 
3302.132992  	0.028139 
3304.061808  	0.028544 
3305.990624  	0.028688 
3307.919440  	0.028793 
3309.848256  	0.028954 
3311.777072  	0.029057 
3313.705888  	0.029145 
3315.634704  	0.029172 
3317.563520  	0.029275 
3319.492336  	0.029601 
3321.421152  	0.029905 
3323.349968  	0.029836 
3325.278784  	0.029711 
3327.207600  	0.029891 
3329.136416  	0.030058 
3331.065232  	0.030118 
3332.994048  	0.030092 
3334.922864  	0.030132 
3336.851680  	0.030303 
3338.780496  	0.030437 
3340.709312  	0.030391 
3342.638128  	0.030457 
3344.566944  	0.030492 
3346.495760  	0.030357 
3348.424576  	0.030070 
3350.353392  	0.030114 
3352.282208  	0.030023 
3354.211024  	0.029922 
3356.139840  	0.029918 
3358.068656  	0.029898 
3359.997472  	0.029856 
3361.926288  	0.029719 
3363.855104  	0.029431 
3365.783920  	0.029269 
3367.712736  	0.029155 
3369.641552  	0.029135 
3371.570368  	0.029053 
3373.499184  	0.028939 
3375.428000  	0.028876 
3377.356816  	0.028745 
3379.285632  	0.028441 
3381.214448  	0.028003 
3383.143264  	0.027808 
3385.072080  	0.027805 
3387.000896  	0.027653 
3388.929712  	0.027407 
3390.858528  	0.027152 
3392.787344  	0.027135 
3394.716160  	0.026992 
3396.644976  	0.027015 
3398.573792  	0.027075 
3400.502608  	0.026999 
3402.431424  	0.026893 
3404.360240  	0.026729 
3406.289056  	0.026299 
3408.217872  	0.025882 
3410.146688  	0.025736 
3412.075504  	0.025775 
3414.004320  	0.025764 
3415.933136  	0.025575 
3417.861952  	0.025300 
3419.790768  	0.025384 
3421.719584  	0.025362 
3423.648400  	0.025087 
3425.577216  	0.024891 
3427.506032  	0.024706 
3429.434848  	0.024505 
3431.363664  	0.024277 
3433.292480  	0.023984 
3435.221296  	0.023681 
3437.150112  	0.023616 
3439.078928  	0.023624 
3441.007744  	0.023530 
3442.936560  	0.023388 
3444.865376  	0.023178 
3446.794192  	0.023031 
3448.723008  	0.022846 
3450.651824  	0.022496 
3452.580640  	0.022186 
3454.509456  	0.021911 
3456.438272  	0.021749 
3458.367088  	0.021555 
3460.295904  	0.021348 
3462.224720  	0.021070 
3464.153536  	0.020835 
3466.082352  	0.020560 
3468.011168  	0.020195 
3469.939984  	0.019959 
3471.868800  	0.019772 
3473.797616  	0.019594 
3475.726432  	0.019321 
3477.655248  	0.018910 
3479.584064  	0.018829 
3481.512880  	0.018741 
3483.441696  	0.018282 
3485.370512  	0.017970 
3487.299328  	0.017853 
3489.228144  	0.017512 
3491.156960  	0.017061 
3493.085776  	0.016747 
3495.014592  	0.016439 
3496.943408  	0.016129 
3498.872224  	0.016094 
3500.801040  	0.016110 
3502.729856  	0.016023 
3504.658672  	0.015740 
3506.587488  	0.015218 
3508.516304  	0.014717 
3510.445120  	0.014484 
3512.373936  	0.014392 
3514.302752  	0.014123 
3516.231568  	0.014018 
3518.160384  	0.013967 
3520.089200  	0.013697 
3522.018016  	0.013549 
3523.946832  	0.013400 
3525.875648  	0.012949 
3527.804464  	0.012677 
3529.733280  	0.012512 
3531.662096  	0.012139 
3533.590912  	0.011873 
3535.519728  	0.012058 
3537.448544  	0.012057 
3539.377360  	0.011678 
3541.306176  	0.011244 
3543.234992  	0.011190 
3545.163808  	0.011291 
3547.092624  	0.011217 
3549.021440  	0.010855 
3550.950256  	0.010481 
3552.879072  	0.010325 
3554.807888  	0.010072 
3556.736704  	0.009793 
3558.665520  	0.009600 
3560.594336  	0.009482 
3562.523152  	0.009173 
3564.451968  	0.008925 
3566.380784  	0.009437 
3568.309600  	0.009675 
3570.238416  	0.008700 
3572.167232  	0.007954 
3574.096048  	0.007730 
3576.024864  	0.007682 
3577.953680  	0.007399 
3579.882496  	0.007014 
3581.811312  	0.006777 
3583.740128  	0.006608 
3585.668944  	0.006681 
3587.597760  	0.007306 
3589.526576  	0.006976 
3591.455392  	0.005855 
3593.384208  	0.005565 
3595.313024  	0.005468 
3597.241840  	0.005252 
3599.170656  	0.004777 
3601.099472  	0.004552 
3603.028288  	0.004340 
3604.957104  	0.003937 
3606.885920  	0.003751 
3608.814736  	0.003684 
3610.743552  	0.003514 
3612.672368  	0.003165 
3614.601184  	0.002653 
3616.530000  	0.002289 
3618.458816  	0.002194 
3620.387632  	0.002193 
3622.316448  	0.001352 
3624.245264  	0.000707 
3626.174080  	-0.000055 
3628.102896  	-0.000132 
3630.031712  	0.001049 
3631.960528  	0.000129 
3633.889344  	-0.000289 
3635.818160  	-0.000749 
3637.746976  	-0.001139 
3639.675792  	-0.001300 
3641.604608  	-0.001759 
3643.533424  	-0.002433 
3645.462240  	-0.003093 
3647.391056  	-0.003357 
3649.319872  	-0.003065 
3651.248688  	-0.002623 
3653.177504  	-0.003825 
3655.106320  	-0.004777 
3657.035136  	-0.004991 
3658.963952  	-0.004985 
3660.892768  	-0.005171 
3662.821584  	-0.005506 
3664.750400  	-0.005664 
3666.679216  	-0.006258 
3668.608032  	-0.006838 
3670.536848  	-0.006000 
3672.465664  	-0.006461 
3674.394480  	-0.007243 
3676.323296  	-0.005897 
3678.252112  	-0.005710 
3680.180928  	-0.005623 
3682.109744  	-0.006106 
3684.038560  	-0.006435 
3685.967376  	-0.006605 
3687.896192  	-0.006329 
3689.825008  	-0.005925 
3691.753824  	-0.006005 
3693.682640  	-0.006273 
3695.611456  	-0.006321 
3697.540272  	-0.006085 
3699.469088  	-0.005917 
3701.397904  	-0.005287 
3703.326720  	-0.005083 
3705.255536  	-0.005239 
3707.184352  	-0.005247 
3709.113168  	-0.005203 
3711.041984  	-0.004698 
3712.970800  	-0.003762 
3714.899616  	-0.003881 
3716.828432  	-0.004359 
3718.757248  	-0.004465 
3720.686064  	-0.004573 
3722.614880  	-0.004328 
3724.543696  	-0.004288 
3726.472512  	-0.004191 
3728.401328  	-0.004455 
3730.330144  	-0.005228 
3732.258960  	-0.005152 
3734.187776  	-0.004560 
3736.116592  	-0.003626 
3738.045408  	-0.003929 
3739.974224  	-0.004462 
3741.903040  	-0.004923 
3743.831856  	-0.003946 
3745.760672  	-0.002970 
3747.689488  	-0.004417 
3749.618304  	-0.004183 
3751.547120  	-0.003532 
3753.475936  	-0.003078 
3755.404752  	-0.003460 
3757.333568  	-0.003637 
3759.262384  	-0.003736 
3761.191200  	-0.003562 
3763.120016  	-0.003977 
3765.048832  	-0.003781 
3766.977648  	-0.003734 
3768.906464  	-0.003836 
3770.835280  	-0.003181 
3772.764096  	-0.003428 
3774.692912  	-0.003881 
3776.621728  	-0.004018 
3778.550544  	-0.003729 
3780.479360  	-0.003238 
3782.408176  	-0.003740 
3784.336992  	-0.003819 
3786.265808  	-0.003543 
3788.194624  	-0.003724 
3790.123440  	-0.003769 
3792.052256  	-0.003659 
3793.981072  	-0.003964 
3795.909888  	-0.003810 
3797.838704  	-0.003967 
3799.767520  	-0.004717 
3801.696336  	-0.003671 
3803.625152  	-0.003564 
3805.553968  	-0.004311 
3807.482784  	-0.003713 
3809.411600  	-0.003555 
3811.340416  	-0.003746 
3813.269232  	-0.004271 
3815.198048  	-0.004289 
3817.126864  	-0.003578 
3819.055680  	-0.004416 
3820.984496  	-0.003864 
3822.913312  	-0.003253 
3824.842128  	-0.004072 
3826.770944  	-0.004015 
3828.699760  	-0.004310 
3830.628576  	-0.004486 
3832.557392  	-0.004275 
3834.486208  	-0.004405 
3836.415024  	-0.004538 
3838.343840  	-0.003703 
3840.272656  	-0.003349 
3842.201472  	-0.003560 
3844.130288  	-0.003401 
3846.059104  	-0.003675 
3847.987920  	-0.004177 
3849.916736  	-0.004405 
3851.845552  	-0.004290 
3853.774368  	-0.002795 
3855.703184  	-0.002775 
3857.632000  	-0.003519 
3859.560816  	-0.004071 
3861.489632  	-0.004053 
3863.418448  	-0.003667 
3865.347264  	-0.003354 
3867.276080  	-0.004069 
3869.204896  	-0.003827 
3871.133712  	-0.003060 
3873.062528  	-0.003497 
3874.991344  	-0.003162 
3876.920160  	-0.003793 
3878.848976  	-0.004031 
3880.777792  	-0.003217 
3882.706608  	-0.003483 
3884.635424  	-0.003645 
3886.564240  	-0.002733 
3888.493056  	-0.003490 
3890.421872  	-0.003841 
3892.350688  	-0.003565 
3894.279504  	-0.003765 
3896.208320  	-0.004258 
3898.137136  	-0.004148 
3900.065952  	-0.003426 
3901.994768  	-0.003239 
3903.923584  	-0.003179 
3905.852400  	-0.003132 
3907.781216  	-0.003705 
3909.710032  	-0.004090 
3911.638848  	-0.003857 
3913.567664  	-0.003930 
3915.496480  	-0.003914 
3917.425296  	-0.003550 
3919.354112  	-0.003617 
3921.282928  	-0.003699 
3923.211744  	-0.003753 
3925.140560  	-0.003583 
3927.069376  	-0.003807 
3928.998192  	-0.003973 
3930.927008  	-0.003538 
3932.855824  	-0.003135 
3934.784640  	-0.003485 
3936.713456  	-0.003728 
3938.642272  	-0.003829 
3940.571088  	-0.003852 
3942.499904  	-0.003586 
3944.428720  	-0.003584 
3946.357536  	-0.003729 
3948.286352  	-0.003488 
3950.215168  	-0.003410 
3952.143984  	-0.003555 
3954.072800  	-0.003730 
3956.001616  	-0.003729 
3957.930432  	-0.003770 
3959.859248  	-0.003669 
3961.788064  	-0.003667 
3963.716880  	-0.003905 
3965.645696  	-0.004059 
3967.574512  	-0.003796 
3969.503328  	-0.003698 
3971.432144  	-0.003727 
3973.360960  	-0.003807 
3975.289776  	-0.003878 
3977.218592  	-0.003861 
3979.147408  	-0.003887 
3981.076224  	-0.003764 
3983.005040  	-0.003649 
3984.933856  	-0.003684 
3986.862672  	-0.003693 
3988.791488  	-0.003820 
3990.720304  	-0.003733 
3992.649120  	-0.003633 
3994.577936  	-0.003587 
3996.506752  	-0.003515 
3998.435568  	-0.003580 
4000.364384  	-0.003794 