##TITLE=No Description
##DATA TYPE=INFRARED SPECTRUM
##XUNITS=1/CM
##YUNITS=Abs
399.264912  	0.631114 
401.193728  	0.627051 
403.122544  	0.635157 
405.051360  	0.623748 
406.980176  	0.619013 
408.908992  	0.607882 
410.837808  	0.604691 
412.766624  	0.606176 
414.695440  	0.605876 
416.624256  	0.589898 
418.553072  	0.590421 
420.481888  	0.586118 
422.410704  	0.585429 
424.339520  	0.573320 
426.268336  	0.575918 
428.197152  	0.574496 
430.125968  	0.576519 
432.054784  	0.570405 
433.983600  	0.568385 
435.912416  	0.559347 
437.841232  	0.559251 
439.770048  	0.556464 
441.698864  	0.553606 
443.627680  	0.550063 
445.556496  	0.550573 
447.485312  	0.544186 
449.414128  	0.542925 
451.342944  	0.542478 
453.271760  	0.547957 
455.200576  	0.543101 
457.129392  	0.540485 
459.058208  	0.538595 
460.987024  	0.541865 
462.915840  	0.538175 
464.844656  	0.541056 
466.773472  	0.542014 
468.702288  	0.541686 
470.631104  	0.536426 
472.559920  	0.537677 
474.488736  	0.535161 
476.417552  	0.535414 
478.346368  	0.531836 
480.275184  	0.532991 
482.204000  	0.530970 
484.132816  	0.528688 
486.061632  	0.522849 
487.990448  	0.527408 
489.919264  	0.528229 
491.848080  	0.527998 
493.776896  	0.524312 
495.705712  	0.522222 
497.634528  	0.521400 
499.563344  	0.525220 
501.492160  	0.520833 
503.420976  	0.519309 
505.349792  	0.518782 
507.278608  	0.519761 
509.207424  	0.516425 
511.136240  	0.517484 
513.065056  	0.518967 
514.993872  	0.520489 
516.922688  	0.518955 
518.851504  	0.518600 
520.780320  	0.515092 
522.709136  	0.515530 
524.637952  	0.513534 
526.566768  	0.512424 
528.495584  	0.509545 
530.424400  	0.508050 
532.353216  	0.506911 
534.282032  	0.504316 
536.210848  	0.499047 
538.139664  	0.495926 
540.068480  	0.491502 
541.997296  	0.487203 
543.926112  	0.483238 
545.854928  	0.483205 
547.783744  	0.480154 
549.712560  	0.476462 
551.641376  	0.472408 
553.570192  	0.469438 
555.499008  	0.465178 
557.427824  	0.461683 
559.356640  	0.458382 
561.285456  	0.455926 
563.214272  	0.452214 
565.143088  	0.449994 
567.071904  	0.445830 
569.000720  	0.442777 
570.929536  	0.439642 
572.858352  	0.437112 
574.787168  	0.434299 
576.715984  	0.431615 
578.644800  	0.427586 
580.573616  	0.425261 
582.502432  	0.421563 
584.431248  	0.418321 
586.360064  	0.415738 
588.288880  	0.413878 
590.217696  	0.411129 
592.146512  	0.409720 
594.075328  	0.407663 
596.004144  	0.404544 
597.932960  	0.401975 
599.861776  	0.400937 
601.790592  	0.399574 
603.719408  	0.398106 
605.648224  	0.395524 
607.577040  	0.394802 
609.505856  	0.394098 
611.434672  	0.393079 
613.363488  	0.390801 
615.292304  	0.389326 
617.221120  	0.386858 
619.149936  	0.384724 
621.078752  	0.382658 
623.007568  	0.380711 
624.936384  	0.378735 
626.865200  	0.377835 
628.794016  	0.375627 
630.722832  	0.374051 
632.651648  	0.373167 
634.580464  	0.372154 
636.509280  	0.371013 
638.438096  	0.370543 
640.366912  	0.369679 
642.295728  	0.368254 
644.224544  	0.365493 
646.153360  	0.362506 
648.082176  	0.358610 
650.010992  	0.355904 
651.939808  	0.352776 
653.868624  	0.349333 
655.797440  	0.345571 
657.726256  	0.342432 
659.655072  	0.338585 
661.583888  	0.334936 
663.512704  	0.331685 
665.441520  	0.328907 
667.370336  	0.323316 
669.299152  	0.318584 
671.227968  	0.318245 
673.156784  	0.315969 
675.085600  	0.313234 
677.014416  	0.311556 
678.943232  	0.309452 
680.872048  	0.307595 
682.800864  	0.305802 
684.729680  	0.304287 
686.658496  	0.301996 
688.587312  	0.299751 
690.516128  	0.297501 
692.444944  	0.296310 
694.373760  	0.295092 
696.302576  	0.293182 
698.231392  	0.290607 
700.160208  	0.287734 
702.089024  	0.285127 
704.017840  	0.284210 
705.946656  	0.281545 
707.875472  	0.278291 
709.804288  	0.276277 
711.733104  	0.274506 
713.661920  	0.272283 
715.590736  	0.271033 
717.519552  	0.269868 
719.448368  	0.269204 
721.377184  	0.269143 
723.306000  	0.269021 
725.234816  	0.268508 
727.163632  	0.267270 
729.092448  	0.264876 
731.021264  	0.262584 
732.950080  	0.260096 
734.878896  	0.257291 
736.807712  	0.254288 
738.736528  	0.252215 
740.665344  	0.250628 
742.594160  	0.248961 
744.522976  	0.247247 
746.451792  	0.245736 
748.380608  	0.244187 
750.309424  	0.242862 
752.238240  	0.241693 
754.167056  	0.240830 
756.095872  	0.239312 
758.024688  	0.237649 
759.953504  	0.236336 
761.882320  	0.235921 
763.811136  	0.235470 
765.739952  	0.234280 
767.668768  	0.232374 
769.597584  	0.230649 
771.526400  	0.229547 
773.455216  	0.230145 
775.384032  	0.231309 
777.312848  	0.232731 
779.241664  	0.234975 
781.170480  	0.235386 
783.099296  	0.232429 
785.028112  	0.228004 
786.956928  	0.223199 
788.885744  	0.219222 
790.814560  	0.215812 
792.743376  	0.213125 
794.672192  	0.211072 
796.601008  	0.209714 
798.529824  	0.207610 
800.458640  	0.204216 
802.387456  	0.200858 
804.316272  	0.199059 
806.245088  	0.197763 
808.173904  	0.196467 
810.102720  	0.195397 
812.031536  	0.194652 
813.960352  	0.193588 
815.889168  	0.192756 
817.817984  	0.192166 
819.746800  	0.191488 
821.675616  	0.190247 
823.604432  	0.189158 
825.533248  	0.187915 
827.462064  	0.186403 
829.390880  	0.184721 
831.319696  	0.183002 
833.248512  	0.181397 
835.177328  	0.179528 
837.106144  	0.177292 
839.034960  	0.174673 
840.963776  	0.171548 
842.892592  	0.168782 
844.821408  	0.166046 
846.750224  	0.163098 
848.679040  	0.160458 
850.607856  	0.158247 
852.536672  	0.156194 
854.465488  	0.153929 
856.394304  	0.151647 
858.323120  	0.149563 
860.251936  	0.147081 
862.180752  	0.144366 
864.109568  	0.141876 
866.038384  	0.139568 
867.967200  	0.137334 
869.896016  	0.135385 
871.824832  	0.133955 
873.753648  	0.133375 
875.682464  	0.133559 
877.611280  	0.132167 
879.540096  	0.130711 
881.468912  	0.131817 
883.397728  	0.132239 
885.326544  	0.132256 
887.255360  	0.131530 
889.184176  	0.129672 
891.112992  	0.126811 
893.041808  	0.125380 
894.970624  	0.124426 
896.899440  	0.122361 
898.828256  	0.119879 
900.757072  	0.117678 
902.685888  	0.116158 
904.614704  	0.115501 
906.543520  	0.115911 
908.472336  	0.117396 
910.401152  	0.119402 
912.329968  	0.121731 
914.258784  	0.124156 
916.187600  	0.126378 
918.116416  	0.127912 
920.045232  	0.128535 
921.974048  	0.128320 
923.902864  	0.127723 
925.831680  	0.126931 
927.760496  	0.126261 
929.689312  	0.125531 
931.618128  	0.125184 
933.546944  	0.125004 
935.475760  	0.124710 
937.404576  	0.124472 
939.333392  	0.124614 
941.262208  	0.125145 
943.191024  	0.126340 
945.119840  	0.128750 
947.048656  	0.131856 
948.977472  	0.135644 
950.906288  	0.140198 
952.835104  	0.145089 
954.763920  	0.149942 
956.692736  	0.154166 
958.621552  	0.157529 
960.550368  	0.159732 
962.479184  	0.160530 
964.408000  	0.159115 
966.336816  	0.155796 
968.265632  	0.150532 
970.194448  	0.144216 
972.123264  	0.136808 
974.052080  	0.128903 
975.980896  	0.121109 
977.909712  	0.113680 
979.838528  	0.107325 
981.767344  	0.102098 
983.696160  	0.098115 
985.624976  	0.095692 
987.553792  	0.094799 
989.482608  	0.095321 
991.411424  	0.096948 
993.340240  	0.099583 
995.269056  	0.103153 
997.197872  	0.107001 
999.126688  	0.110563 
1001.055504  	0.114161 
1002.984320  	0.117437 
1004.913136  	0.120393 
1006.841952  	0.122727 
1008.770768  	0.124419 
1010.699584  	0.125333 
1012.628400  	0.125471 
1014.557216  	0.124870 
1016.486032  	0.124371 
1018.414848  	0.124197 
1020.343664  	0.124080 
1022.272480  	0.123501 
1024.201296  	0.121492 
1026.130112  	0.114919 
1028.058928  	0.112115 
1029.987744  	0.117155 
1031.916560  	0.117958 
1033.845376  	0.115292 
1035.774192  	0.110446 
1037.703008  	0.106857 
1039.631824  	0.108362 
1041.560640  	0.110577 
1043.489456  	0.113775 
1045.418272  	0.119063 
1047.347088  	0.126471 
1049.275904  	0.134782 
1051.204720  	0.143225 
1053.133536  	0.151334 
1055.062352  	0.157080 
1056.991168  	0.159298 
1058.919984  	0.165366 
1060.848800  	0.172289 
1062.777616  	0.171208 
1064.706432  	0.161986 
1066.635248  	0.156255 
1068.564064  	0.161509 
1070.492880  	0.161819 
1072.421696  	0.155789 
1074.350512  	0.150298 
1076.279328  	0.147388 
1078.208144  	0.147479 
1080.136960  	0.150345 
1082.065776  	0.154020 
1083.994592  	0.157901 
1085.923408  	0.161387 
1087.852224  	0.163497 
1089.781040  	0.165556 
1091.709856  	0.167884 
1093.638672  	0.166834 
1095.567488  	0.162138 
1097.496304  	0.156160 
1099.425120  	0.149792 
1101.353936  	0.143053 
1103.282752  	0.136243 
1105.211568  	0.129529 
1107.140384  	0.123439 
1109.069200  	0.117487 
1110.998016  	0.112202 
1112.926832  	0.107355 
1114.855648  	0.102262 
1116.784464  	0.097080 
1118.713280  	0.092277 
1120.642096  	0.087858 
1122.570912  	0.083295 
1124.499728  	0.078844 
1126.428544  	0.074893 
1128.357360  	0.071152 
1130.286176  	0.067632 
1132.214992  	0.064581 
1134.143808  	0.062169 
1136.072624  	0.059853 
1138.001440  	0.057613 
1139.930256  	0.055340 
1141.859072  	0.053486 
1143.787888  	0.051478 
1145.716704  	0.049851 
1147.645520  	0.048578 
1149.574336  	0.047420 
1151.503152  	0.046287 
1153.431968  	0.045755 
1155.360784  	0.045580 
1157.289600  	0.045878 
1159.218416  	0.046452 
1161.147232  	0.047296 
1163.076048  	0.048133 
1165.004864  	0.049275 
1166.933680  	0.050389 
1168.862496  	0.051908 
1170.791312  	0.053446 
1172.720128  	0.054854 
1174.648944  	0.056145 
1176.577760  	0.057824 
1178.506576  	0.059454 
1180.435392  	0.060921 
1182.364208  	0.062192 
1184.293024  	0.063812 
1186.221840  	0.065545 
1188.150656  	0.067450 
1190.079472  	0.069812 
1192.008288  	0.072692 
1193.937104  	0.075846 
1195.865920  	0.079792 
1197.794736  	0.083920 
1199.723552  	0.088511 
1201.652368  	0.093291 
1203.581184  	0.098124 
1205.510000  	0.102788 
1207.438816  	0.107686 
1209.367632  	0.112166 
1211.296448  	0.116225 
1213.225264  	0.119709 
1215.154080  	0.122496 
1217.082896  	0.124403 
1219.011712  	0.125727 
1220.940528  	0.126803 
1222.869344  	0.127549 
1224.798160  	0.127894 
1226.726976  	0.128239 
1228.655792  	0.128451 
1230.584608  	0.128682 
1232.513424  	0.128999 
1234.442240  	0.129158 
1236.371056  	0.128447 
1238.299872  	0.126507 
1240.228688  	0.120393 
1242.157504  	0.115290 
1244.086320  	0.113451 
1246.015136  	0.108366 
1247.943952  	0.101181 
1249.872768  	0.094607 
1251.801584  	0.090165 
1253.730400  	0.085762 
1255.659216  	0.081309 
1257.588032  	0.077054 
1259.516848  	0.073108 
1261.445664  	0.069716 
1263.374480  	0.066872 
1265.303296  	0.064417 
1267.232112  	0.062675 
1269.160928  	0.061644 
1271.089744  	0.061018 
1273.018560  	0.060560 
1274.947376  	0.060400 
1276.876192  	0.060338 
1278.805008  	0.060018 
1280.733824  	0.059045 
1282.662640  	0.057215 
1284.591456  	0.054868 
1286.520272  	0.052777 
1288.449088  	0.051091 
1290.377904  	0.049521 
1292.306720  	0.048414 
1294.235536  	0.047156 
1296.164352  	0.045365 
1298.093168  	0.042939 
1300.021984  	0.040402 
1301.950800  	0.037939 
1303.879616  	0.035828 
1305.808432  	0.034006 
1307.737248  	0.032558 
1309.666064  	0.031036 
1311.594880  	0.030408 
1313.523696  	0.030102 
1315.452512  	0.029578 
1317.381328  	0.029650 
1319.310144  	0.029934 
1321.238960  	0.029980 
1323.167776  	0.030270 
1325.096592  	0.030690 
1327.025408  	0.030914 
1328.954224  	0.030668 
1330.883040  	0.030167 
1332.811856  	0.029362 
1334.740672  	0.028975 
1336.669488  	0.029167 
1338.598304  	0.029793 
1340.527120  	0.028870 
1342.455936  	0.026794 
1344.384752  	0.026032 
1346.313568  	0.026186 
1348.242384  	0.026778 
1350.171200  	0.027645 
1352.100016  	0.028598 
1354.028832  	0.029856 
1355.957648  	0.031094 
1357.886464  	0.032200 
1359.815280  	0.033633 
1361.744096  	0.035549 
1363.672912  	0.035670 
1365.601728  	0.034140 
1367.530544  	0.033537 
1369.459360  	0.032549 
1371.388176  	0.030753 
1373.316992  	0.029212 
1375.245808  	0.026175 
1377.174624  	0.022680 
1379.103440  	0.019640 
1381.032256  	0.016962 
1382.961072  	0.015430 
1384.889888  	0.015692 
1386.818704  	0.017270 
1388.747520  	0.016924 
1390.676336  	0.013489 
1392.605152  	0.007183 
1394.533968  	0.005874 
1396.462784  	0.012896 
1398.391600  	0.015137 
1400.320416  	0.013244 
1402.249232  	0.011095 
1404.178048  	0.010951 
1406.106864  	0.011161 
1408.035680  	0.012367 
1409.964496  	0.015127 
1411.893312  	0.018745 
1413.822128  	0.022397 
1415.750944  	0.027126 
1417.679760  	0.031252 
1419.608576  	0.032756 
1421.537392  	0.032347 
1423.466208  	0.032967 
1425.395024  	0.032227 
1427.323840  	0.031123 
1429.252656  	0.030618 
1431.181472  	0.029971 
1433.110288  	0.029573 
1435.039104  	0.030281 
1436.967920  	0.030738 
1438.896736  	0.029988 
1440.825552  	0.029901 
1442.754368  	0.030396 
1444.683184  	0.030587 
1446.612000  	0.031044 
1448.540816  	0.030197 
1450.469632  	0.029497 
1452.398448  	0.030077 
1454.327264  	0.031491 
1456.256080  	0.034516 
1458.184896  	0.035514 
1460.113712  	0.034225 
1462.042528  	0.033959 
1463.971344  	0.034806 
1465.900160  	0.036321 
1467.828976  	0.037764 
1469.757792  	0.040150 
1471.686608  	0.044198 
1473.615424  	0.048621 
1475.544240  	0.051061 
1477.473056  	0.052508 
1479.401872  	0.053217 
1481.330688  	0.054458 
1483.259504  	0.054788 
1485.188320  	0.055239 
1487.117136  	0.055627 
1489.045952  	0.055806 
1490.974768  	0.052648 
1492.903584  	0.048852 
1494.832400  	0.046750 
1496.761216  	0.044497 
1498.690032  	0.041414 
1500.618848  	0.038950 
1502.547664  	0.036794 
1504.476480  	0.035351 
1506.405296  	0.036744 
1508.334112  	0.037459 
1510.262928  	0.034719 
1512.191744  	0.032382 
1514.120560  	0.031560 
1516.049376  	0.032688 
1517.978192  	0.032765 
1519.907008  	0.033469 
1521.835824  	0.035539 
1523.764640  	0.036906 
1525.693456  	0.039116 
1527.622272  	0.040500 
1529.551088  	0.040608 
1531.479904  	0.041117 
1533.408720  	0.040992 
1535.337536  	0.039167 
1537.266352  	0.037383 
1539.195168  	0.035348 
1541.123984  	0.033824 
1543.052800  	0.033885 
1544.981616  	0.032837 
1546.910432  	0.030419 
1548.839248  	0.030284 
1550.768064  	0.030713 
1552.696880  	0.029997 
1554.625696  	0.030822 
1556.554512  	0.030999 
1558.483328  	0.032640 
1560.412144  	0.034905 
1562.340960  	0.035795 
1564.269776  	0.037344 
1566.198592  	0.040286 
1568.127408  	0.043132 
1570.056224  	0.047175 
1571.985040  	0.050078 
1573.913856  	0.052252 
1575.842672  	0.053777 
1577.771488  	0.055313 
1579.700304  	0.055190 
1581.629120  	0.055008 
1583.557936  	0.054997 
1585.486752  	0.055894 
1587.415568  	0.057732 
1589.344384  	0.060907 
1591.273200  	0.064566 
1593.202016  	0.068961 
1595.130832  	0.073368 
1597.059648  	0.077556 
1598.988464  	0.080846 
1600.917280  	0.083806 
1602.846096  	0.085552 
1604.774912  	0.086529 
1606.703728  	0.086515 
1608.632544  	0.086156 
1610.561360  	0.085169 
1612.490176  	0.084615 
1614.418992  	0.084302 
1616.347808  	0.084724 
1618.276624  	0.086216 
1620.205440  	0.089220 
1622.134256  	0.092387 
1624.063072  	0.097170 
1625.991888  	0.101853 
1627.920704  	0.107319 
1629.849520  	0.113287 
1631.778336  	0.119438 
1633.707152  	0.124877 
1635.635968  	0.131241 
1637.564784  	0.136931 
1639.493600  	0.141282 
1641.422416  	0.144808 
1643.351232  	0.147989 
1645.280048  	0.150146 
1647.208864  	0.151659 
1649.137680  	0.151707 
1651.066496  	0.152177 
1652.995312  	0.149964 
1654.924128  	0.148499 
1656.852944  	0.147621 
1658.781760  	0.146381 
1660.710576  	0.145190 
1662.639392  	0.143421 
1664.568208  	0.141147 
1666.497024  	0.140473 
1668.425840  	0.139395 
1670.354656  	0.137168 
1672.283472  	0.135722 
1674.212288  	0.135159 
1676.141104  	0.133996 
1678.069920  	0.134610 
1679.998736  	0.135911 
1681.927552  	0.136666 
1683.856368  	0.136325 
1685.785184  	0.135511 
1687.714000  	0.135772 
1689.642816  	0.134975 
1691.571632  	0.133137 
1693.500448  	0.132210 
1695.429264  	0.130271 
1697.358080  	0.128070 
1699.286896  	0.125877 
1701.215712  	0.120754 
1703.144528  	0.117964 
1705.073344  	0.114496 
1707.002160  	0.109442 
1708.930976  	0.105124 
1710.859792  	0.100474 
1712.788608  	0.095959 
1714.717424  	0.091513 
1716.646240  	0.085703 
1718.575056  	0.077782 
1720.503872  	0.070894 
1722.432688  	0.065766 
1724.361504  	0.059757 
1726.290320  	0.054186 
1728.219136  	0.049680 
1730.147952  	0.046116 
1732.076768  	0.042474 
1734.005584  	0.038349 
1735.934400  	0.032721 
1737.863216  	0.029866 
1739.792032  	0.026344 
1741.720848  	0.024277 
1743.649664  	0.022712 
1745.578480  	0.020490 
1747.507296  	0.018829 
1749.436112  	0.018196 
1751.364928  	0.016874 
1753.293744  	0.014683 
1755.222560  	0.013243 
1757.151376  	0.013014 
1759.080192  	0.011907 
1761.009008  	0.011651 
1762.937824  	0.010937 
1764.866640  	0.010078 
1766.795456  	0.010095 
1768.724272  	0.010533 
1770.653088  	0.009341 
1772.581904  	0.009089 
1774.510720  	0.008985 
1776.439536  	0.008895 
1778.368352  	0.008523 
1780.297168  	0.008875 
1782.225984  	0.008435 
1784.154800  	0.008268 
1786.083616  	0.008042 
1788.012432  	0.007684 
1789.941248  	0.007957 
1791.870064  	0.008631 
1793.798880  	0.008109 
1795.727696  	0.008111 
1797.656512  	0.007480 
1799.585328  	0.007435 
1801.514144  	0.007781 
1803.442960  	0.007078 
1805.371776  	0.006232 
1807.300592  	0.006268 
1809.229408  	0.006125 
1811.158224  	0.006290 
1813.087040  	0.005881 
1815.015856  	0.005422 
1816.944672  	0.005565 
1818.873488  	0.005850 
1820.802304  	0.005742 
1822.731120  	0.006048 
1824.659936  	0.006425 
1826.588752  	0.006338 
1828.517568  	0.005969 
1830.446384  	0.006436 
1832.375200  	0.006020 
1834.304016  	0.005681 
1836.232832  	0.005509 
1838.161648  	0.005773 
1840.090464  	0.005560 
1842.019280  	0.005877 
1843.948096  	0.006246 
1845.876912  	0.006503 
1847.805728  	0.006196 
1849.734544  	0.005758 
1851.663360  	0.005164 
1853.592176  	0.005082 
1855.520992  	0.004822 
1857.449808  	0.005312 
1859.378624  	0.005490 
1861.307440  	0.005541 
1863.236256  	0.005149 
1865.165072  	0.005236 
1867.093888  	0.005820 
1869.022704  	0.006820 
1870.951520  	0.005867 
1872.880336  	0.005151 
1874.809152  	0.004649 
1876.737968  	0.004658 
1878.666784  	0.004440 
1880.595600  	0.004511 
1882.524416  	0.004408 
1884.453232  	0.004621 
1886.382048  	0.004353 
1888.310864  	0.004822 
1890.239680  	0.005232 
1892.168496  	0.005032 
1894.097312  	0.004618 
1896.026128  	0.004674 
1897.954944  	0.004162 
1899.883760  	0.003953 
1901.812576  	0.003710 
1903.741392  	0.003881 
1905.670208  	0.003804 
1907.599024  	0.004123 
1909.527840  	0.004235 
1911.456656  	0.004156 
1913.385472  	0.003809 
1915.314288  	0.004098 
1917.243104  	0.004601 
1919.171920  	0.004558 
1921.100736  	0.004417 
1923.029552  	0.005111 
1924.958368  	0.003890 
1926.887184  	0.003565 
1928.816000  	0.003212 
1930.744816  	0.002717 
1932.673632  	0.002301 
1934.602448  	0.002783 
1936.531264  	0.003231 
1938.460080  	0.003598 
1940.388896  	0.003626 
1942.317712  	0.004366 
1944.246528  	0.003985 
1946.175344  	0.004205 
1948.104160  	0.003085 
1950.032976  	0.002771 
1951.961792  	0.002810 
1953.890608  	0.003292 
1955.819424  	0.003089 
1957.748240  	0.003137 
1959.677056  	0.002836 
1961.605872  	0.003484 
1963.534688  	0.002924 
1965.463504  	0.004082 
1967.392320  	0.003708 
1969.321136  	0.002975 
1971.249952  	0.003115 
1973.178768  	0.004537 
1975.107584  	0.003380 
1977.036400  	0.002601 
1978.965216  	0.004902 
1980.894032  	0.005569 
1982.822848  	0.003945 
1984.751664  	0.004061 
1986.680480  	0.004760 
1988.609296  	0.005474 
1990.538112  	0.004662 
1992.466928  	0.004880 
1994.395744  	0.004583 
1996.324560  	0.004733 
1998.253376  	0.004103 
2000.182192  	0.003093 
2002.111008  	0.002885 
2004.039824  	0.004093 
2005.968640  	0.003795 
2007.897456  	0.004848 
2009.826272  	0.004386 
2011.755088  	0.002798 
2013.683904  	0.002698 
2015.612720  	0.004314 
2017.541536  	0.004591 
2019.470352  	0.004650 
2021.399168  	0.003598 
2023.327984  	0.004086 
2025.256800  	0.004364 
2027.185616  	0.003842 
2029.114432  	0.003020 
2031.043248  	0.005071 
2032.972064  	0.005585 
2034.900880  	0.005776 
2036.829696  	0.005565 
2038.758512  	0.005316 
2040.687328  	0.004914 
2042.616144  	0.004735 
2044.544960  	0.004790 
2046.473776  	0.005847 
2048.402592  	0.005656 
2050.331408  	0.006016 
2052.260224  	0.005063 
2054.189040  	0.004362 
2056.117856  	0.003761 
2058.046672  	0.004044 
2059.975488  	0.003936 
2061.904304  	0.004113 
2063.833120  	0.005419 
2065.761936  	0.006364 
2067.690752  	0.005285 
2069.619568  	0.004609 
2071.548384  	0.003438 
2073.477200  	0.003777 
2075.406016  	0.004901 
2077.334832  	0.005266 
2079.263648  	0.004409 
2081.192464  	0.004420 
2083.121280  	0.005179 
2085.050096  	0.005135 
2086.978912  	0.004865 
2088.907728  	0.005067 
2090.836544  	0.004659 
2092.765360  	0.004171 
2094.694176  	0.004179 
2096.622992  	0.004868 
2098.551808  	0.004676 
2100.480624  	0.004118 
2102.409440  	0.003857 
2104.338256  	0.004687 
2106.267072  	0.005044 
2108.195888  	0.005053 
2110.124704  	0.005337 
2112.053520  	0.005404 
2113.982336  	0.005263 
2115.911152  	0.005304 
2117.839968  	0.004196 
2119.768784  	0.003492 
2121.697600  	0.003423 
2123.626416  	0.003423 
2125.555232  	0.003465 
2127.484048  	0.004189 
2129.412864  	0.003817 
2131.341680  	0.002638 
2133.270496  	0.002819 
2135.199312  	0.003378 
2137.128128  	0.003289 
2139.056944  	0.003436 
2140.985760  	0.002758 
2142.914576  	0.003217 
2144.843392  	0.003077 
2146.772208  	0.003918 
2148.701024  	0.003990 
2150.629840  	0.004011 
2152.558656  	0.003254 
2154.487472  	0.002151 
2156.416288  	0.000847 
2158.345104  	0.002906 
2160.273920  	0.006473 
2162.202736  	0.007727 
2164.131552  	0.006642 
2166.060368  	0.007259 
2167.989184  	0.005721 
2169.918000  	0.004101 
2171.846816  	0.004256 
2173.775632  	0.005545 
2175.704448  	0.006081 
2177.633264  	0.006047 
2179.562080  	0.005057 
2181.490896  	0.004729 
2183.419712  	0.004496 
2185.348528  	0.005299 
2187.277344  	0.005303 
2189.206160  	0.005103 
2191.134976  	0.005967 
2193.063792  	0.007601 
2194.992608  	0.007416 
2196.921424  	0.006363 
2198.850240  	0.006742 
2200.779056  	0.006689 
2202.707872  	0.005879 
2204.636688  	0.005482 
2206.565504  	0.005207 
2208.494320  	0.005813 
2210.423136  	0.004601 
2212.351952  	0.004414 
2214.280768  	0.004970 
2216.209584  	0.005325 
2218.138400  	0.005449 
2220.067216  	0.005618 
2221.996032  	0.005212 
2223.924848  	0.004896 
2225.853664  	0.005270 
2227.782480  	0.006245 
2229.711296  	0.006418 
2231.640112  	0.006037 
2233.568928  	0.005277 
2235.497744  	0.005119 
2237.426560  	0.004890 
2239.355376  	0.004907 
2241.284192  	0.004682 
2243.213008  	0.004849 
2245.141824  	0.004687 
2247.070640  	0.004508 
2248.999456  	0.004564 
2250.928272  	0.005017 
2252.857088  	0.004736 
2254.785904  	0.004209 
2256.714720  	0.004642 
2258.643536  	0.005336 
2260.572352  	0.005281 
2262.501168  	0.005357 
2264.429984  	0.005444 
2266.358800  	0.005796 
2268.287616  	0.005601 
2270.216432  	0.005273 
2272.145248  	0.004922 
2274.074064  	0.005013 
2276.002880  	0.004916 
2277.931696  	0.005560 
2279.860512  	0.005905 
2281.789328  	0.006004 
2283.718144  	0.006194 
2285.646960  	0.006634 
2287.575776  	0.006726 
2289.504592  	0.006361 
2291.433408  	0.005996 
2293.362224  	0.005977 
2295.291040  	0.006050 
2297.219856  	0.006362 
2299.148672  	0.006500 
2301.077488  	0.006560 
2303.006304  	0.006586 
2304.935120  	0.006590 
2306.863936  	0.006458 
2308.792752  	0.006525 
2310.721568  	0.006416 
2312.650384  	0.005952 
2314.579200  	0.005322 
2316.508016  	0.004817 
2318.436832  	0.003962 
2320.365648  	0.003515 
2322.294464  	0.002829 
2324.223280  	0.001524 
2326.152096  	-0.000293 
2328.080912  	-0.001766 
2330.009728  	-0.002856 
2331.938544  	-0.003774 
2333.867360  	-0.005147 
2335.796176  	-0.006283 
2337.724992  	-0.006810 
2339.653808  	-0.007361 
2341.582624  	-0.007265 
2343.511440  	-0.005631 
2345.440256  	-0.003348 
2347.369072  	-0.000192 
2349.297888  	0.000689 
2351.226704  	-0.001647 
2353.155520  	-0.004872 
2355.084336  	-0.008054 
2357.013152  	-0.010334 
2358.941968  	-0.011266 
2360.870784  	-0.011944 
2362.799600  	-0.011242 
2364.728416  	-0.010018 
2366.657232  	-0.008021 
2368.586048  	-0.005942 
2370.514864  	-0.003457 
2372.443680  	-0.000920 
2374.372496  	0.001315 
2376.301312  	0.003245 
2378.230128  	0.004865 
2380.158944  	0.005597 
2382.087760  	0.005875 
2384.016576  	0.005870 
2385.945392  	0.005661 
2387.874208  	0.005213 
2389.803024  	0.004886 
2391.731840  	0.004538 
2393.660656  	0.004682 
2395.589472  	0.005089 
2397.518288  	0.005220 
2399.447104  	0.005097 
2401.375920  	0.004866 
2403.304736  	0.004824 
2405.233552  	0.004947 
2407.162368  	0.005108 
2409.091184  	0.005119 
2411.020000  	0.005158 
2412.948816  	0.005304 
2414.877632  	0.005183 
2416.806448  	0.005369 
2418.735264  	0.005638 
2420.664080  	0.005509 
2422.592896  	0.005145 
2424.521712  	0.005241 
2426.450528  	0.005454 
2428.379344  	0.005442 
2430.308160  	0.005436 
2432.236976  	0.005410 
2434.165792  	0.005584 
2436.094608  	0.006092 
2438.023424  	0.006259 
2439.952240  	0.006328 
2441.881056  	0.006504 
2443.809872  	0.006479 
2445.738688  	0.006155 
2447.667504  	0.006185 
2449.596320  	0.006351 
2451.525136  	0.006409 
2453.453952  	0.006400 
2455.382768  	0.006580 
2457.311584  	0.006649 
2459.240400  	0.006578 
2461.169216  	0.006496 
2463.098032  	0.006456 
2465.026848  	0.006321 
2466.955664  	0.006316 
2468.884480  	0.006252 
2470.813296  	0.006343 
2472.742112  	0.006249 
2474.670928  	0.006260 
2476.599744  	0.006312 
2478.528560  	0.006299 
2480.457376  	0.006529 
2482.386192  	0.006644 
2484.315008  	0.006553 
2486.243824  	0.006595 
2488.172640  	0.006502 
2490.101456  	0.006595 
2492.030272  	0.006748 
2493.959088  	0.006640 
2495.887904  	0.006433 
2497.816720  	0.006662 
2499.745536  	0.006872 
2501.674352  	0.007035 
2503.603168  	0.007064 
2505.531984  	0.006967 
2507.460800  	0.006886 
2509.389616  	0.006850 
2511.318432  	0.006684 
2513.247248  	0.006900 
2515.176064  	0.007124 
2517.104880  	0.007415 
2519.033696  	0.007665 
2520.962512  	0.007659 
2522.891328  	0.007815 
2524.820144  	0.007872 
2526.748960  	0.007755 
2528.677776  	0.007849 
2530.606592  	0.007843 
2532.535408  	0.007812 
2534.464224  	0.007918 
2536.393040  	0.007968 
2538.321856  	0.007822 
2540.250672  	0.007983 
2542.179488  	0.008087 
2544.108304  	0.008048 
2546.037120  	0.007893 
2547.965936  	0.008134 
2549.894752  	0.008309 
2551.823568  	0.008279 
2553.752384  	0.008286 
2555.681200  	0.008400 
2557.610016  	0.008530 
2559.538832  	0.008747 
2561.467648  	0.008842 
2563.396464  	0.009099 
2565.325280  	0.009335 
2567.254096  	0.009272 
2569.182912  	0.008891 
2571.111728  	0.008692 
2573.040544  	0.008606 
2574.969360  	0.008787 
2576.898176  	0.009067 
2578.826992  	0.009235 
2580.755808  	0.009187 
2582.684624  	0.009153 
2584.613440  	0.009204 
2586.542256  	0.009310 
2588.471072  	0.009393 
2590.399888  	0.009374 
2592.328704  	0.009368 
2594.257520  	0.009575 
2596.186336  	0.009872 
2598.115152  	0.010020 
2600.043968  	0.009875 
2601.972784  	0.009786 
2603.901600  	0.009835 
2605.830416  	0.009992 
2607.759232  	0.010004 
2609.688048  	0.010232 
2611.616864  	0.010429 
2613.545680  	0.010532 
2615.474496  	0.010549 
2617.403312  	0.010398 
2619.332128  	0.010402 
2621.260944  	0.010543 
2623.189760  	0.010572 
2625.118576  	0.010647 
2627.047392  	0.010750 
2628.976208  	0.011010 
2630.905024  	0.011068 
2632.833840  	0.011139 
2634.762656  	0.011227 
2636.691472  	0.011187 
2638.620288  	0.011225 
2640.549104  	0.011335 
2642.477920  	0.011380 
2644.406736  	0.011480 
2646.335552  	0.011705 
2648.264368  	0.011881 
2650.193184  	0.011936 
2652.122000  	0.011962 
2654.050816  	0.012026 
2655.979632  	0.011991 
2657.908448  	0.011968 
2659.837264  	0.012046 
2661.766080  	0.011998 
2663.694896  	0.011950 
2665.623712  	0.011948 
2667.552528  	0.012039 
2669.481344  	0.012177 
2671.410160  	0.012382 
2673.338976  	0.012435 
2675.267792  	0.012455 
2677.196608  	0.012559 
2679.125424  	0.012693 
2681.054240  	0.012716 
2682.983056  	0.012813 
2684.911872  	0.012983 
2686.840688  	0.013043 
2688.769504  	0.013096 
2690.698320  	0.013160 
2692.627136  	0.013209 
2694.555952  	0.013203 
2696.484768  	0.013153 
2698.413584  	0.013264 
2700.342400  	0.013300 
2702.271216  	0.013335 
2704.200032  	0.013542 
2706.128848  	0.013650 
2708.057664  	0.013631 
2709.986480  	0.013592 
2711.915296  	0.013512 
2713.844112  	0.013557 
2715.772928  	0.013730 
2717.701744  	0.013832 
2719.630560  	0.013871 
2721.559376  	0.013889 
2723.488192  	0.013941 
2725.417008  	0.014132 
2727.345824  	0.014253 
2729.274640  	0.014123 
2731.203456  	0.013996 
2733.132272  	0.014017 
2735.061088  	0.014143 
2736.989904  	0.014219 
2738.918720  	0.014123 
2740.847536  	0.013984 
2742.776352  	0.014140 
2744.705168  	0.014313 
2746.633984  	0.014232 
2748.562800  	0.014244 
2750.491616  	0.014303 
2752.420432  	0.014305 
2754.349248  	0.014295 
2756.278064  	0.014322 
2758.206880  	0.014367 
2760.135696  	0.014454 
2762.064512  	0.014327 
2763.993328  	0.014216 
2765.922144  	0.014235 
2767.850960  	0.014226 
2769.779776  	0.014129 
2771.708592  	0.014159 
2773.637408  	0.014169 
2775.566224  	0.014162 
2777.495040  	0.014096 
2779.423856  	0.014087 
2781.352672  	0.014204 
2783.281488  	0.014272 
2785.210304  	0.014158 
2787.139120  	0.014104 
2789.067936  	0.014180 
2790.996752  	0.014203 
2792.925568  	0.014170 
2794.854384  	0.014122 
2796.783200  	0.014078 
2798.712016  	0.014049 
2800.640832  	0.014066 
2802.569648  	0.014118 
2804.498464  	0.014119 
2806.427280  	0.014016 
2808.356096  	0.014019 
2810.284912  	0.014173 
2812.213728  	0.014060 
2814.142544  	0.013948 
2816.071360  	0.013918 
2818.000176  	0.013616 
2819.928992  	0.013322 
2821.857808  	0.013199 
2823.786624  	0.013021 
2825.715440  	0.012776 
2827.644256  	0.012485 
2829.573072  	0.012301 
2831.501888  	0.011808 
2833.430704  	0.011317 
2835.359520  	0.010978 
2837.288336  	0.010451 
2839.217152  	0.009874 
2841.145968  	0.009336 
2843.074784  	0.008916 
2845.003600  	0.008578 
2846.932416  	0.008296 
2848.861232  	0.007981 
2850.790048  	0.007161 
2852.718864  	0.005749 
2854.647680  	0.004086 
2856.576496  	0.002452 
2858.505312  	0.000751 
2860.434128  	-0.000931 
2862.362944  	-0.002905 
2864.291760  	-0.004890 
2866.220576  	-0.006667 
2868.149392  	-0.007808 
2870.078208  	-0.008514 
2872.007024  	-0.009080 
2873.935840  	-0.009557 
2875.864656  	-0.010232 
2877.793472  	-0.011270 
2879.722288  	-0.012645 
2881.651104  	-0.014386 
2883.579920  	-0.015945 
2885.508736  	-0.016391 
2887.437552  	-0.016015 
2889.366368  	-0.016130 
2891.295184  	-0.016992 
2893.224000  	-0.017548 
2895.152816  	-0.017401 
2897.081632  	-0.018272 
2899.010448  	-0.022093 
2900.939264  	-0.025348 
2902.868080  	-0.022690 
2904.796896  	-0.019847 
2906.725712  	-0.018819 
2908.654528  	-0.017990 
2910.583344  	-0.017291 
2912.512160  	-0.015466 
2914.440976  	-0.012785 
2916.369792  	-0.011108 
2918.298608  	-0.010439 
2920.227424  	-0.010328 
2922.156240  	-0.010028 
2924.085056  	-0.009245 
2926.013872  	-0.008421 
2927.942688  	-0.007620 
2929.871504  	-0.006632 
2931.800320  	-0.005929 
2933.729136  	-0.005660 
2935.657952  	-0.005639 
2937.586768  	-0.005446 
2939.515584  	-0.005484 
2941.444400  	-0.005968 
2943.373216  	-0.006375 
2945.302032  	-0.006293 
2947.230848  	-0.006285 
2949.159664  	-0.007166 
2951.088480  	-0.008733 
2953.017296  	-0.010063 
2954.946112  	-0.011503 
2956.874928  	-0.013235 
2958.803744  	-0.014849 
2960.732560  	-0.016175 
2962.661376  	-0.017531 
2964.590192  	-0.019503 
2966.519008  	-0.022068 
2968.447824  	-0.024459 
2970.376640  	-0.026000 
2972.305456  	-0.026801 
2974.234272  	-0.026519 
2976.163088  	-0.026129 
2978.091904  	-0.025774 
2980.020720  	-0.025671 
2981.949536  	-0.025725 
2983.878352  	-0.026624 
2985.807168  	-0.028567 
2987.735984  	-0.030262 
2989.664800  	-0.029168 
2991.593616  	-0.022384 
2993.522432  	-0.018448 
2995.451248  	-0.017458 
2997.380064  	-0.015733 
2999.308880  	-0.013282 
3001.237696  	-0.010442 
3003.166512  	-0.007743 
3005.095328  	-0.005063 
3007.024144  	-0.002095 
3008.952960  	0.000864 
3010.881776  	0.003759 
3012.810592  	0.006470 
3014.739408  	0.008803 
3016.668224  	0.011095 
3018.597040  	0.013305 
3020.525856  	0.015322 
3022.454672  	0.017355 
3024.383488  	0.019248 
3026.312304  	0.021059 
3028.241120  	0.022798 
3030.169936  	0.024160 
3032.098752  	0.025494 
3034.027568  	0.026595 
3035.956384  	0.027610 
3037.885200  	0.028659 
3039.814016  	0.029626 
3041.742832  	0.030547 
3043.671648  	0.031292 
3045.600464  	0.031911 
3047.529280  	0.032440 
3049.458096  	0.032875 
3051.386912  	0.033137 
3053.315728  	0.033532 
3055.244544  	0.034085 
3057.173360  	0.034775 
3059.102176  	0.035234 
3061.030992  	0.035449 
3062.959808  	0.035758 
3064.888624  	0.036290 
3066.817440  	0.036781 
3068.746256  	0.037049 
3070.675072  	0.037197 
3072.603888  	0.037604 
3074.532704  	0.038131 
3076.461520  	0.038576 
3078.390336  	0.038959 
3080.319152  	0.039371 
3082.247968  	0.039763 
3084.176784  	0.039972 
3086.105600  	0.040229 
3088.034416  	0.040584 
3089.963232  	0.041048 
3091.892048  	0.041562 
3093.820864  	0.041806 
3095.749680  	0.042134 
3097.678496  	0.042444 
3099.607312  	0.042833 
3101.536128  	0.043204 
3103.464944  	0.043591 
3105.393760  	0.044023 
3107.322576  	0.044324 
3109.251392  	0.044708 
3111.180208  	0.045063 
3113.109024  	0.045281 
3115.037840  	0.045521 
3116.966656  	0.045954 
3118.895472  	0.046283 
3120.824288  	0.046512 
3122.753104  	0.046847 
3124.681920  	0.047205 
3126.610736  	0.047361 
3128.539552  	0.047614 
3130.468368  	0.047849 
3132.397184  	0.047999 
3134.326000  	0.048241 
3136.254816  	0.048528 
3138.183632  	0.048894 
3140.112448  	0.049100 
3142.041264  	0.049211 
3143.970080  	0.049417 
3145.898896  	0.049625 
3147.827712  	0.049918 
3149.756528  	0.050300 
3151.685344  	0.050791 
3153.614160  	0.051223 
3155.542976  	0.051343 
3157.471792  	0.051353 
3159.400608  	0.051721 
3161.329424  	0.052220 
3163.258240  	0.052604 
3165.187056  	0.052784 
3167.115872  	0.053003 
3169.044688  	0.053281 
3170.973504  	0.053475 
3172.902320  	0.053533 
3174.831136  	0.053802 
3176.759952  	0.054270 
3178.688768  	0.054441 
3180.617584  	0.054269 
3182.546400  	0.054113 
3184.475216  	0.054501 
3186.404032  	0.054880 
3188.332848  	0.054929 
3190.261664  	0.055180 
3192.190480  	0.055346 
3194.119296  	0.055133 
3196.048112  	0.054944 
3197.976928  	0.055177 
3199.905744  	0.055288 
3201.834560  	0.055246 
3203.763376  	0.055321 
3205.692192  	0.055266 
3207.621008  	0.055094 
3209.549824  	0.055017 
3211.478640  	0.054964 
3213.407456  	0.054735 
3215.336272  	0.054655 
3217.265088  	0.054534 
3219.193904  	0.054220 
3221.122720  	0.053977 
3223.051536  	0.053758 
3224.980352  	0.053611 
3226.909168  	0.053416 
3228.837984  	0.053250 
3230.766800  	0.053362 
3232.695616  	0.053373 
3234.624432  	0.053248 
3236.553248  	0.053097 
3238.482064  	0.053022 
3240.410880  	0.053070 
3242.339696  	0.052951 
3244.268512  	0.052927 
3246.197328  	0.053029 
3248.126144  	0.053004 
3250.054960  	0.052999 
3251.983776  	0.052985 
3253.912592  	0.053179 
3255.841408  	0.053376 
3257.770224  	0.053428 
3259.699040  	0.053613 
3261.627856  	0.053701 
3263.556672  	0.053742 
3265.485488  	0.053929 
3267.414304  	0.054016 
3269.343120  	0.054185 
3271.271936  	0.054425 
3273.200752  	0.054704 
3275.129568  	0.054878 
3277.058384  	0.054821 
3278.987200  	0.054801 
3280.916016  	0.054859 
3282.844832  	0.054975 
3284.773648  	0.055032 
3286.702464  	0.055213 
3288.631280  	0.055604 
3290.560096  	0.055856 
3292.488912  	0.056117 
3294.417728  	0.056172 
3296.346544  	0.056220 
3298.275360  	0.056466 
3300.204176  	0.056818 
3302.132992  	0.056915 
3304.061808  	0.057198 
3305.990624  	0.057769 
3307.919440  	0.058053 
3309.848256  	0.058138 
3311.777072  	0.058131 
3313.705888  	0.058285 
3315.634704  	0.058748 
3317.563520  	0.059010 
3319.492336  	0.058995 
3321.421152  	0.059042 
3323.349968  	0.059269 
3325.278784  	0.059729 
3327.207600  	0.059944 
3329.136416  	0.059897 
3331.065232  	0.059720 
3332.994048  	0.059933 
3334.922864  	0.060099 
3336.851680  	0.060030 
3338.780496  	0.059887 
3340.709312  	0.059783 
3342.638128  	0.059695 
3344.566944  	0.059588 
3346.495760  	0.059442 
3348.424576  	0.059246 
3350.353392  	0.059216 
3352.282208  	0.058989 
3354.211024  	0.058836 
3356.139840  	0.058836 
3358.068656  	0.058509 
3359.997472  	0.058305 
3361.926288  	0.058046 
3363.855104  	0.057636 
3365.783920  	0.057453 
3367.712736  	0.057403 
3369.641552  	0.056974 
3371.570368  	0.056452 
3373.499184  	0.056230 
3375.428000  	0.055941 
3377.356816  	0.055609 
3379.285632  	0.055346 
3381.214448  	0.055229 
3383.143264  	0.054906 
3385.072080  	0.054623 
3387.000896  	0.054253 
3388.929712  	0.053977 
3390.858528  	0.053774 
3392.787344  	0.053552 
3394.716160  	0.053244 
3396.644976  	0.053045 
3398.573792  	0.052717 
3400.502608  	0.052096 
3402.431424  	0.051511 
3404.360240  	0.051179 
3406.289056  	0.050925 
3408.217872  	0.050644 
3410.146688  	0.050300 
3412.075504  	0.050276 
3414.004320  	0.050118 
3415.933136  	0.049573 
3417.861952  	0.049192 
3419.790768  	0.049180 
3421.719584  	0.048955 
3423.648400  	0.048322 
3425.577216  	0.047865 
3427.506032  	0.047722 
3429.434848  	0.047374 
3431.363664  	0.047188 
3433.292480  	0.047054 
3435.221296  	0.046696 
3437.150112  	0.046328 
3439.078928  	0.046085 
3441.007744  	0.045661 
3442.936560  	0.045342 
3444.865376  	0.045056 
3446.794192  	0.044743 
3448.723008  	0.044214 
3450.651824  	0.043427 
3452.580640  	0.042922 
3454.509456  	0.042552 
3456.438272  	0.042273 
3458.367088  	0.041892 
3460.295904  	0.041551 
3462.224720  	0.041251 
3464.153536  	0.040758 
3466.082352  	0.040301 
3468.011168  	0.039849 
3469.939984  	0.039289 
3471.868800  	0.038798 
3473.797616  	0.038431 
3475.726432  	0.037831 
3477.655248  	0.037199 
3479.584064  	0.037187 
3481.512880  	0.037142 
3483.441696  	0.036177 
3485.370512  	0.035193 
3487.299328  	0.035051 
3489.228144  	0.034847 
3491.156960  	0.033934 
3493.085776  	0.033456 
3495.014592  	0.033283 
3496.943408  	0.032983 
3498.872224  	0.032410 
3500.801040  	0.032482 
3502.729856  	0.032557 
3504.658672  	0.031802 
3506.587488  	0.030710 
3508.516304  	0.030488 
3510.445120  	0.030369 
3512.373936  	0.029758 
3514.302752  	0.029156 
3516.231568  	0.028752 
3518.160384  	0.028545 
3520.089200  	0.028366 
3522.018016  	0.028509 
3523.946832  	0.028739 
3525.875648  	0.028188 
3527.804464  	0.027362 
3529.733280  	0.026727 
3531.662096  	0.026117 
3533.590912  	0.025713 
3535.519728  	0.025784 
3537.448544  	0.025538 
3539.377360  	0.024674 
3541.306176  	0.024120 
3543.234992  	0.024391 
3545.163808  	0.025389 
3547.092624  	0.025053 
3549.021440  	0.023395 
3550.950256  	0.022711 
3552.879072  	0.022812 
3554.807888  	0.022158 
3556.736704  	0.021440 
3558.665520  	0.021457 
3560.594336  	0.021658 
3562.523152  	0.021326 
3564.451968  	0.021594 
3566.380784  	0.022988 
3568.309600  	0.022541 
3570.238416  	0.020204 
3572.167232  	0.018694 
3574.096048  	0.018126 
3576.024864  	0.017791 
3577.953680  	0.017535 
3579.882496  	0.017342 
3581.811312  	0.017037 
3583.740128  	0.016735 
3585.668944  	0.017041 
3587.597760  	0.017965 
3589.526576  	0.016769 
3591.455392  	0.014695 
3593.384208  	0.014494 
3595.313024  	0.014310 
3597.241840  	0.013266 
3599.170656  	0.012346 
3601.099472  	0.012138 
3603.028288  	0.011664 
3604.957104  	0.010983 
3606.885920  	0.011035 
3608.814736  	0.011384 
3610.743552  	0.010495 
3612.672368  	0.009880 
3614.601184  	0.009363 
3616.530000  	0.007929 
3618.458816  	0.007471 
3620.387632  	0.007298 
3622.316448  	0.005750 
3624.245264  	0.004397 
3626.174080  	0.003829 
3628.102896  	0.004090 
3630.031712  	0.004969 
3631.960528  	0.003118 
3633.889344  	0.001435 
3635.818160  	-0.000114 
3637.746976  	-0.001195 
3639.675792  	-0.001651 
3641.604608  	-0.002322 
3643.533424  	-0.003620 
3645.462240  	-0.005109 
3647.391056  	-0.005455 
3649.319872  	-0.005833 
3651.248688  	-0.006409 
3653.177504  	-0.008592 
3655.106320  	-0.011112 
3657.035136  	-0.012090 
3658.963952  	-0.013260 
3660.892768  	-0.014541 
3662.821584  	-0.015148 
3664.750400  	-0.015142 
3666.679216  	-0.015597 
3668.608032  	-0.015874 
3670.536848  	-0.014647 
3672.465664  	-0.014839 
3674.394480  	-0.017115 
3676.323296  	-0.015908 
3678.252112  	-0.013431 
3680.180928  	-0.012879 
3682.109744  	-0.013909 
3684.038560  	-0.014967 
3685.967376  	-0.015350 
3687.896192  	-0.015426 
3689.825008  	-0.013914 
3691.753824  	-0.012997 
3693.682640  	-0.012726 
3695.611456  	-0.012392 
3697.540272  	-0.011474 
3699.469088  	-0.010534 
3701.397904  	-0.008732 
3703.326720  	-0.007194 
3705.255536  	-0.007135 
3707.184352  	-0.007236 
3709.113168  	-0.006879 
3711.041984  	-0.005463 
3712.970800  	-0.003729 
3714.899616  	-0.003600 
3716.828432  	-0.004498 
3718.757248  	-0.004720 
3720.686064  	-0.004528 
3722.614880  	-0.003359 
3724.543696  	-0.002548 
3726.472512  	-0.002300 
3728.401328  	-0.003352 
3730.330144  	-0.005145 
3732.258960  	-0.004950 
3734.187776  	-0.002031 
3736.116592  	0.000170 
3738.045408  	-0.001449 
3739.974224  	-0.002973 
3741.903040  	-0.003697 
3743.831856  	-0.003202 
3745.760672  	-0.000870 
3747.689488  	-0.002980 
3749.618304  	-0.003975 
3751.547120  	-0.002631 
3753.475936  	-0.001721 
3755.404752  	-0.002825 
3757.333568  	-0.003782 
3759.262384  	-0.003436 
3761.191200  	-0.002779 
3763.120016  	-0.003315 
3765.048832  	-0.003484 
3766.977648  	-0.003257 
3768.906464  	-0.003712 
3770.835280  	-0.002983 
3772.764096  	-0.003097 
3774.692912  	-0.003820 
3776.621728  	-0.004314 
3778.550544  	-0.004235 
3780.479360  	-0.003389 
3782.408176  	-0.003705 
3784.336992  	-0.004081 
3786.265808  	-0.003847 
3788.194624  	-0.003946 
3790.123440  	-0.004182 
3792.052256  	-0.004285 
3793.981072  	-0.004378 
3795.909888  	-0.004148 
3797.838704  	-0.003533 
3799.767520  	-0.004729 
3801.696336  	-0.004065 
3803.625152  	-0.003057 
3805.553968  	-0.004502 
3807.482784  	-0.003704 
3809.411600  	-0.003190 
3811.340416  	-0.003750 
3813.269232  	-0.004218 
3815.198048  	-0.004695 
3817.126864  	-0.003539 
3819.055680  	-0.004255 
3820.984496  	-0.003864 
3822.913312  	-0.002316 
3824.842128  	-0.003330 
3826.770944  	-0.003610 
3828.699760  	-0.003787 
3830.628576  	-0.004604 
3832.557392  	-0.004324 
3834.486208  	-0.004386 
3836.415024  	-0.004661 
3838.343840  	-0.003543 
3840.272656  	-0.002623 
3842.201472  	-0.003189 
3844.130288  	-0.003516 
3846.059104  	-0.003737 
3847.987920  	-0.004246 
3849.916736  	-0.004622 
3851.845552  	-0.005094 
3853.774368  	-0.002491 
3855.703184  	-0.001465 
3857.632000  	-0.002868 
3859.560816  	-0.004041 
3861.489632  	-0.004260 
3863.418448  	-0.003699 
3865.347264  	-0.002955 
3867.276080  	-0.003568 
3869.204896  	-0.003678 
3871.133712  	-0.001780 
3873.062528  	-0.002695 
3874.991344  	-0.002895 
3876.920160  	-0.003887 
3878.848976  	-0.004191 
3880.777792  	-0.002526 
3882.706608  	-0.002301 
3884.635424  	-0.003129 
3886.564240  	-0.002525 
3888.493056  	-0.003568 
3890.421872  	-0.003847 
3892.350688  	-0.002527 
3894.279504  	-0.002963 
3896.208320  	-0.003718 
3898.137136  	-0.003379 
3900.065952  	-0.002278 
3901.994768  	-0.001696 
3903.923584  	-0.001317 
3905.852400  	-0.001577 
3907.781216  	-0.003187 
3909.710032  	-0.004268 
3911.638848  	-0.004203 
3913.567664  	-0.004053 
3915.496480  	-0.003406 
3917.425296  	-0.002146 
3919.354112  	-0.002294 
3921.282928  	-0.002838 
3923.211744  	-0.002962 
3925.140560  	-0.002505 
3927.069376  	-0.003206 
3928.998192  	-0.003599 
3930.927008  	-0.002588 
3932.855824  	-0.001835 
3934.784640  	-0.002718 
3936.713456  	-0.003410 
3938.642272  	-0.003490 
3940.571088  	-0.003502 
3942.499904  	-0.002418 
3944.428720  	-0.002336 
3946.357536  	-0.003011 
3948.286352  	-0.002697 
3950.215168  	-0.002911 
3952.143984  	-0.003628 
3954.072800  	-0.003971 
3956.001616  	-0.003895 
3957.930432  	-0.003647 
3959.859248  	-0.003459 
3961.788064  	-0.003277 
3963.716880  	-0.003522 
3965.645696  	-0.003914 
3967.574512  	-0.003674 
3969.503328  	-0.003577 
3971.432144  	-0.003831 
3973.360960  	-0.003839 
3975.289776  	-0.003619 
3977.218592  	-0.003689 
3979.147408  	-0.003737 
3981.076224  	-0.003884 
3983.005040  	-0.004182 
3984.933856  	-0.004209 
3986.862672  	-0.003979 
3988.791488  	-0.003939 
3990.720304  	-0.003878 
3992.649120  	-0.003919 
3994.577936  	-0.003928 
3996.506752  	-0.004046 
3998.435568  	-0.004172 
4000.364384  	-0.004167 