##TITLE=No Description
##DATA TYPE=INFRARED SPECTRUM
##XUNITS=1/CM
##YUNITS=Abs
399.264912  	0.611887 
401.193728  	0.591634 
403.122544  	0.607200 
405.051360  	0.607763 
406.980176  	0.602457 
408.908992  	0.597121 
410.837808  	0.595280 
412.766624  	0.588953 
414.695440  	0.598872 
416.624256  	0.603930 
418.553072  	0.602229 
420.481888  	0.585425 
422.410704  	0.588600 
424.339520  	0.576837 
426.268336  	0.571609 
428.197152  	0.572011 
430.125968  	0.577006 
432.054784  	0.568047 
433.983600  	0.565471 
435.912416  	0.556047 
437.841232  	0.548974 
439.770048  	0.549953 
441.698864  	0.553613 
443.627680  	0.548027 
445.556496  	0.545359 
447.485312  	0.545754 
449.414128  	0.544460 
451.342944  	0.544173 
453.271760  	0.549241 
455.200576  	0.539526 
457.129392  	0.539388 
459.058208  	0.540512 
460.987024  	0.542587 
462.915840  	0.541701 
464.844656  	0.544408 
466.773472  	0.544751 
468.702288  	0.545053 
470.631104  	0.542824 
472.559920  	0.541502 
474.488736  	0.537032 
476.417552  	0.541760 
478.346368  	0.542901 
480.275184  	0.543452 
482.204000  	0.541203 
484.132816  	0.541430 
486.061632  	0.536429 
487.990448  	0.537662 
489.919264  	0.539781 
491.848080  	0.540407 
493.776896  	0.532462 
495.705712  	0.529278 
497.634528  	0.528681 
499.563344  	0.532814 
501.492160  	0.530887 
503.420976  	0.528262 
505.349792  	0.526972 
507.278608  	0.529187 
509.207424  	0.528556 
511.136240  	0.529062 
513.065056  	0.526888 
514.993872  	0.529554 
516.922688  	0.532413 
518.851504  	0.534916 
520.780320  	0.531057 
522.709136  	0.532168 
524.637952  	0.531053 
526.566768  	0.527922 
528.495584  	0.524915 
530.424400  	0.523517 
532.353216  	0.519465 
534.282032  	0.515345 
536.210848  	0.508792 
538.139664  	0.503654 
540.068480  	0.499705 
541.997296  	0.497361 
543.926112  	0.491019 
545.854928  	0.487858 
547.783744  	0.485692 
549.712560  	0.481335 
551.641376  	0.475426 
553.570192  	0.471880 
555.499008  	0.469272 
557.427824  	0.465945 
559.356640  	0.461338 
561.285456  	0.458718 
563.214272  	0.455290 
565.143088  	0.452569 
567.071904  	0.446509 
569.000720  	0.442062 
570.929536  	0.438970 
572.858352  	0.436069 
574.787168  	0.432885 
576.715984  	0.430067 
578.644800  	0.425550 
580.573616  	0.422400 
582.502432  	0.418187 
584.431248  	0.414881 
586.360064  	0.411632 
588.288880  	0.409415 
590.217696  	0.407332 
592.146512  	0.405366 
594.075328  	0.401762 
596.004144  	0.399480 
597.932960  	0.398006 
599.861776  	0.397333 
601.790592  	0.395295 
603.719408  	0.393748 
605.648224  	0.392145 
607.577040  	0.391529 
609.505856  	0.390795 
611.434672  	0.389753 
613.363488  	0.387486 
615.292304  	0.385632 
617.221120  	0.382894 
619.149936  	0.381578 
621.078752  	0.379767 
623.007568  	0.377611 
624.936384  	0.375887 
626.865200  	0.374497 
628.794016  	0.373635 
630.722832  	0.373119 
632.651648  	0.371671 
634.580464  	0.370721 
636.509280  	0.371030 
638.438096  	0.371678 
640.366912  	0.370913 
642.295728  	0.368982 
644.224544  	0.365927 
646.153360  	0.362928 
648.082176  	0.359596 
650.010992  	0.356435 
651.939808  	0.352775 
653.868624  	0.348269 
655.797440  	0.343502 
657.726256  	0.340317 
659.655072  	0.336584 
661.583888  	0.332731 
663.512704  	0.329406 
665.441520  	0.326011 
667.370336  	0.319527 
669.299152  	0.314892 
671.227968  	0.313846 
673.156784  	0.310789 
675.085600  	0.307872 
677.014416  	0.306150 
678.943232  	0.304666 
680.872048  	0.303306 
682.800864  	0.302005 
684.729680  	0.300653 
686.658496  	0.298434 
688.587312  	0.296584 
690.516128  	0.294467 
692.444944  	0.293065 
694.373760  	0.291920 
696.302576  	0.290573 
698.231392  	0.288106 
700.160208  	0.285629 
702.089024  	0.283219 
704.017840  	0.281473 
705.946656  	0.278929 
707.875472  	0.275852 
709.804288  	0.272966 
711.733104  	0.271205 
713.661920  	0.270133 
715.590736  	0.269601 
717.519552  	0.269343 
719.448368  	0.269434 
721.377184  	0.269998 
723.306000  	0.270569 
725.234816  	0.270511 
727.163632  	0.269250 
729.092448  	0.266883 
731.021264  	0.264289 
732.950080  	0.261077 
734.878896  	0.257875 
736.807712  	0.255247 
738.736528  	0.253250 
740.665344  	0.251456 
742.594160  	0.249683 
744.522976  	0.248082 
746.451792  	0.247002 
748.380608  	0.246138 
750.309424  	0.245267 
752.238240  	0.244228 
754.167056  	0.243566 
756.095872  	0.242788 
758.024688  	0.241651 
759.953504  	0.240955 
761.882320  	0.241196 
763.811136  	0.241816 
765.739952  	0.241310 
767.668768  	0.239620 
769.597584  	0.238069 
771.526400  	0.237576 
773.455216  	0.239516 
775.384032  	0.242708 
777.312848  	0.246773 
779.241664  	0.251123 
781.170480  	0.252285 
783.099296  	0.248915 
785.028112  	0.243549 
786.956928  	0.237386 
788.885744  	0.232162 
790.814560  	0.228114 
792.743376  	0.225677 
794.672192  	0.224159 
796.601008  	0.223491 
798.529824  	0.221540 
800.458640  	0.217274 
802.387456  	0.213323 
804.316272  	0.211765 
806.245088  	0.211213 
808.173904  	0.210971 
810.102720  	0.210852 
812.031536  	0.210633 
813.960352  	0.210615 
815.889168  	0.210797 
817.817984  	0.210839 
819.746800  	0.210854 
821.675616  	0.210618 
823.604432  	0.210476 
825.533248  	0.209875 
827.462064  	0.208843 
829.390880  	0.207374 
831.319696  	0.205952 
833.248512  	0.204467 
835.177328  	0.202693 
837.106144  	0.200003 
839.034960  	0.196752 
840.963776  	0.193295 
842.892592  	0.190031 
844.821408  	0.186706 
846.750224  	0.183705 
848.679040  	0.181458 
850.607856  	0.179370 
852.536672  	0.177643 
854.465488  	0.175554 
856.394304  	0.173323 
858.323120  	0.171347 
860.251936  	0.169175 
862.180752  	0.166645 
864.109568  	0.164441 
866.038384  	0.162319 
867.967200  	0.160464 
869.896016  	0.159198 
871.824832  	0.158177 
873.753648  	0.158047 
875.682464  	0.158951 
877.611280  	0.159152 
879.540096  	0.159104 
881.468912  	0.160717 
883.397728  	0.161423 
885.326544  	0.161353 
887.255360  	0.160621 
889.184176  	0.158788 
891.112992  	0.155919 
893.041808  	0.153920 
894.970624  	0.152033 
896.899440  	0.148925 
898.828256  	0.145234 
900.757072  	0.141860 
902.685888  	0.139211 
904.614704  	0.137752 
906.543520  	0.137824 
908.472336  	0.139680 
910.401152  	0.142691 
912.329968  	0.146208 
914.258784  	0.149783 
916.187600  	0.153168 
918.116416  	0.155875 
920.045232  	0.157277 
921.974048  	0.157335 
923.902864  	0.156980 
925.831680  	0.156159 
927.760496  	0.155426 
929.689312  	0.154918 
931.618128  	0.155053 
933.546944  	0.155423 
935.475760  	0.155676 
937.404576  	0.155767 
939.333392  	0.156216 
941.262208  	0.157366 
943.191024  	0.159606 
945.119840  	0.163505 
947.048656  	0.168803 
948.977472  	0.175547 
950.906288  	0.183541 
952.835104  	0.192143 
954.763920  	0.201056 
956.692736  	0.209605 
958.621552  	0.216833 
960.550368  	0.221655 
962.479184  	0.223897 
964.408000  	0.222628 
966.336816  	0.218137 
968.265632  	0.210508 
970.194448  	0.200966 
972.123264  	0.189620 
974.052080  	0.177735 
975.980896  	0.166320 
977.909712  	0.155504 
979.838528  	0.146152 
981.767344  	0.138652 
983.696160  	0.133318 
985.624976  	0.130414 
987.553792  	0.130065 
989.482608  	0.131901 
991.411424  	0.135909 
993.340240  	0.141682 
995.269056  	0.148751 
997.197872  	0.156474 
999.126688  	0.163890 
1001.055504  	0.171503 
1002.984320  	0.178672 
1004.913136  	0.185452 
1006.841952  	0.191245 
1008.770768  	0.196115 
1010.699584  	0.199399 
1012.628400  	0.201144 
1014.557216  	0.201874 
1016.486032  	0.202195 
1018.414848  	0.202257 
1020.343664  	0.202469 
1022.272480  	0.202331 
1024.201296  	0.201170 
1026.130112  	0.196986 
1028.058928  	0.195558 
1029.987744  	0.200461 
1031.916560  	0.203149 
1033.845376  	0.203796 
1035.774192  	0.203449 
1037.703008  	0.204776 
1039.631824  	0.210797 
1041.560640  	0.218699 
1043.489456  	0.229140 
1045.418272  	0.241953 
1047.347088  	0.256989 
1049.275904  	0.272012 
1051.204720  	0.285249 
1053.133536  	0.295475 
1055.062352  	0.302161 
1056.991168  	0.303980 
1058.919984  	0.307704 
1060.848800  	0.310768 
1062.777616  	0.307737 
1064.706432  	0.298348 
1066.635248  	0.290981 
1068.564064  	0.290743 
1070.492880  	0.286798 
1072.421696  	0.278120 
1074.350512  	0.270781 
1076.279328  	0.266631 
1078.208144  	0.265524 
1080.136960  	0.266512 
1082.065776  	0.268762 
1083.994592  	0.270195 
1085.923408  	0.270422 
1087.852224  	0.268871 
1089.781040  	0.266592 
1091.709856  	0.263389 
1093.638672  	0.257116 
1095.567488  	0.247157 
1097.496304  	0.236054 
1099.425120  	0.224058 
1101.353936  	0.212036 
1103.282752  	0.200491 
1105.211568  	0.189397 
1107.140384  	0.178896 
1109.069200  	0.168866 
1110.998016  	0.159629 
1112.926832  	0.151015 
1114.855648  	0.142739 
1116.784464  	0.134700 
1118.713280  	0.127360 
1120.642096  	0.120541 
1122.570912  	0.113858 
1124.499728  	0.107569 
1126.428544  	0.101685 
1128.357360  	0.096081 
1130.286176  	0.090981 
1132.214992  	0.086855 
1134.143808  	0.083445 
1136.072624  	0.080425 
1138.001440  	0.077356 
1139.930256  	0.074407 
1141.859072  	0.071686 
1143.787888  	0.068827 
1145.716704  	0.066499 
1147.645520  	0.064598 
1149.574336  	0.063238 
1151.503152  	0.061966 
1153.431968  	0.061352 
1155.360784  	0.061205 
1157.289600  	0.061885 
1159.218416  	0.063102 
1161.147232  	0.064800 
1163.076048  	0.066552 
1165.004864  	0.068549 
1166.933680  	0.070542 
1168.862496  	0.072914 
1170.791312  	0.075648 
1172.720128  	0.078402 
1174.648944  	0.081037 
1176.577760  	0.083869 
1178.506576  	0.086622 
1180.435392  	0.089478 
1182.364208  	0.092245 
1184.293024  	0.095340 
1186.221840  	0.098525 
1188.150656  	0.101880 
1190.079472  	0.106235 
1192.008288  	0.111661 
1193.937104  	0.117684 
1195.865920  	0.124716 
1197.794736  	0.132192 
1199.723552  	0.140283 
1201.652368  	0.148669 
1203.581184  	0.157099 
1205.510000  	0.165423 
1207.438816  	0.173839 
1209.367632  	0.182018 
1211.296448  	0.189330 
1213.225264  	0.195643 
1215.154080  	0.200506 
1217.082896  	0.204137 
1219.011712  	0.206636 
1220.940528  	0.208636 
1222.869344  	0.209678 
1224.798160  	0.210125 
1226.726976  	0.209964 
1228.655792  	0.209460 
1230.584608  	0.208494 
1232.513424  	0.207159 
1234.442240  	0.204897 
1236.371056  	0.201777 
1238.299872  	0.197396 
1240.228688  	0.189468 
1242.157504  	0.181550 
1244.086320  	0.176092 
1246.015136  	0.168374 
1247.943952  	0.159050 
1249.872768  	0.149972 
1251.801584  	0.142747 
1253.730400  	0.135822 
1255.659216  	0.128924 
1257.588032  	0.122114 
1259.516848  	0.115988 
1261.445664  	0.110478 
1263.374480  	0.105698 
1265.303296  	0.101569 
1267.232112  	0.098434 
1269.160928  	0.096218 
1271.089744  	0.094949 
1273.018560  	0.094316 
1274.947376  	0.094050 
1276.876192  	0.093975 
1278.805008  	0.093517 
1280.733824  	0.092139 
1282.662640  	0.089434 
1284.591456  	0.086002 
1286.520272  	0.082761 
1288.449088  	0.080204 
1290.377904  	0.078215 
1292.306720  	0.076900 
1294.235536  	0.075222 
1296.164352  	0.072632 
1298.093168  	0.069357 
1300.021984  	0.065771 
1301.950800  	0.062164 
1303.879616  	0.059001 
1305.808432  	0.056338 
1307.737248  	0.054095 
1309.666064  	0.051925 
1311.594880  	0.050711 
1313.523696  	0.050130 
1315.452512  	0.049578 
1317.381328  	0.049637 
1319.310144  	0.050098 
1321.238960  	0.050424 
1323.167776  	0.051072 
1325.096592  	0.051832 
1327.025408  	0.052343 
1328.954224  	0.052255 
1330.883040  	0.051600 
1332.811856  	0.050490 
1334.740672  	0.049791 
1336.669488  	0.049605 
1338.598304  	0.050054 
1340.527120  	0.049173 
1342.455936  	0.046808 
1344.384752  	0.045879 
1346.313568  	0.046204 
1348.242384  	0.047250 
1350.171200  	0.048825 
1352.100016  	0.050523 
1354.028832  	0.052499 
1355.957648  	0.054719 
1357.886464  	0.056805 
1359.815280  	0.058884 
1361.744096  	0.061665 
1363.672912  	0.063327 
1365.601728  	0.062765 
1367.530544  	0.062931 
1369.459360  	0.062876 
1371.388176  	0.061431 
1373.316992  	0.059949 
1375.245808  	0.057253 
1377.174624  	0.053563 
1379.103440  	0.050177 
1381.032256  	0.047005 
1382.961072  	0.044886 
1384.889888  	0.044126 
1386.818704  	0.044950 
1388.747520  	0.044031 
1390.676336  	0.040270 
1392.605152  	0.034750 
1394.533968  	0.033940 
1396.462784  	0.039406 
1398.391600  	0.041082 
1400.320416  	0.040147 
1402.249232  	0.038438 
1404.178048  	0.039112 
1406.106864  	0.040246 
1408.035680  	0.041840 
1409.964496  	0.044931 
1411.893312  	0.048915 
1413.822128  	0.052516 
1415.750944  	0.056769 
1417.679760  	0.060552 
1419.608576  	0.062767 
1421.537392  	0.061732 
1423.466208  	0.061294 
1425.395024  	0.059899 
1427.323840  	0.057586 
1429.252656  	0.056175 
1431.181472  	0.054919 
1433.110288  	0.053949 
1435.039104  	0.054303 
1436.967920  	0.056033 
1438.896736  	0.055660 
1440.825552  	0.055284 
1442.754368  	0.055872 
1444.683184  	0.055937 
1446.612000  	0.056381 
1448.540816  	0.056516 
1450.469632  	0.056045 
1452.398448  	0.056243 
1454.327264  	0.056849 
1456.256080  	0.059386 
1458.184896  	0.061920 
1460.113712  	0.060345 
1462.042528  	0.059204 
1463.971344  	0.059895 
1465.900160  	0.062383 
1467.828976  	0.064128 
1469.757792  	0.066781 
1471.686608  	0.072004 
1473.615424  	0.079475 
1475.544240  	0.083524 
1477.473056  	0.086647 
1479.401872  	0.088049 
1481.330688  	0.089818 
1483.259504  	0.090203 
1485.188320  	0.090011 
1487.117136  	0.089627 
1489.045952  	0.089239 
1490.974768  	0.085611 
1492.903584  	0.080246 
1494.832400  	0.076112 
1496.761216  	0.072599 
1498.690032  	0.068236 
1500.618848  	0.064388 
1502.547664  	0.060433 
1504.476480  	0.057014 
1506.405296  	0.058296 
1508.334112  	0.059458 
1510.262928  	0.055223 
1512.191744  	0.052277 
1514.120560  	0.050734 
1516.049376  	0.051630 
1517.978192  	0.052350 
1519.907008  	0.052821 
1521.835824  	0.056950 
1523.764640  	0.059402 
1525.693456  	0.062271 
1527.622272  	0.064690 
1529.551088  	0.065001 
1531.479904  	0.064950 
1533.408720  	0.065187 
1535.337536  	0.062883 
1537.266352  	0.058908 
1539.195168  	0.055947 
1541.123984  	0.054701 
1543.052800  	0.053914 
1544.981616  	0.052444 
1546.910432  	0.049507 
1548.839248  	0.048661 
1550.768064  	0.049270 
1552.696880  	0.048165 
1554.625696  	0.049361 
1556.554512  	0.048964 
1558.483328  	0.052167 
1560.412144  	0.058617 
1562.340960  	0.059050 
1564.269776  	0.061200 
1566.198592  	0.065791 
1568.127408  	0.069638 
1570.056224  	0.076940 
1571.985040  	0.081723 
1573.913856  	0.084130 
1575.842672  	0.087066 
1577.771488  	0.090327 
1579.700304  	0.089466 
1581.629120  	0.088870 
1583.557936  	0.088604 
1585.486752  	0.089959 
1587.415568  	0.092825 
1589.344384  	0.097789 
1591.273200  	0.103467 
1593.202016  	0.110454 
1595.130832  	0.117607 
1597.059648  	0.124704 
1598.988464  	0.130212 
1600.917280  	0.135010 
1602.846096  	0.137908 
1604.774912  	0.139507 
1606.703728  	0.139262 
1608.632544  	0.138758 
1610.561360  	0.137153 
1612.490176  	0.135933 
1614.418992  	0.134620 
1616.347808  	0.136107 
1618.276624  	0.139542 
1620.205440  	0.142771 
1622.134256  	0.147055 
1624.063072  	0.155570 
1625.991888  	0.162597 
1627.920704  	0.171330 
1629.849520  	0.180936 
1631.778336  	0.189459 
1633.707152  	0.196559 
1635.635968  	0.207721 
1637.564784  	0.217382 
1639.493600  	0.222203 
1641.422416  	0.226497 
1643.351232  	0.229944 
1645.280048  	0.231729 
1647.208864  	0.234670 
1649.137680  	0.234142 
1651.066496  	0.231732 
1652.995312  	0.229940 
1654.924128  	0.229474 
1656.852944  	0.225504 
1658.781760  	0.221993 
1660.710576  	0.218965 
1662.639392  	0.216199 
1664.568208  	0.212845 
1666.497024  	0.209780 
1668.425840  	0.206921 
1670.354656  	0.204181 
1672.283472  	0.201229 
1674.212288  	0.199078 
1676.141104  	0.198082 
1678.069920  	0.197213 
1679.998736  	0.197194 
1681.927552  	0.196554 
1683.856368  	0.196418 
1685.785184  	0.196843 
1687.714000  	0.195269 
1689.642816  	0.193592 
1691.571632  	0.190670 
1693.500448  	0.187559 
1695.429264  	0.184462 
1697.358080  	0.181175 
1699.286896  	0.176907 
1701.215712  	0.171931 
1703.144528  	0.166469 
1705.073344  	0.160761 
1707.002160  	0.154149 
1708.930976  	0.147649 
1710.859792  	0.140902 
1712.788608  	0.133903 
1714.717424  	0.126829 
1716.646240  	0.118550 
1718.575056  	0.109178 
1720.503872  	0.099666 
1722.432688  	0.092001 
1724.361504  	0.083875 
1726.290320  	0.076243 
1728.219136  	0.069668 
1730.147952  	0.064338 
1732.076768  	0.058543 
1734.005584  	0.054128 
1735.934400  	0.047899 
1737.863216  	0.043019 
1739.792032  	0.038734 
1741.720848  	0.035886 
1743.649664  	0.033493 
1745.578480  	0.030599 
1747.507296  	0.028120 
1749.436112  	0.027179 
1751.364928  	0.025903 
1753.293744  	0.023380 
1755.222560  	0.021110 
1757.151376  	0.021107 
1759.080192  	0.019544 
1761.009008  	0.019001 
1762.937824  	0.018681 
1764.866640  	0.017452 
1766.795456  	0.016852 
1768.724272  	0.017204 
1770.653088  	0.015552 
1772.581904  	0.016090 
1774.510720  	0.016098 
1776.439536  	0.015644 
1778.368352  	0.014931 
1780.297168  	0.015377 
1782.225984  	0.014943 
1784.154800  	0.014697 
1786.083616  	0.014536 
1788.012432  	0.013818 
1789.941248  	0.013550 
1791.870064  	0.014570 
1793.798880  	0.014482 
1795.727696  	0.014051 
1797.656512  	0.013171 
1799.585328  	0.013111 
1801.514144  	0.013713 
1803.442960  	0.013088 
1805.371776  	0.012085 
1807.300592  	0.012058 
1809.229408  	0.011767 
1811.158224  	0.012191 
1813.087040  	0.011828 
1815.015856  	0.011056 
1816.944672  	0.011033 
1818.873488  	0.011363 
1820.802304  	0.011129 
1822.731120  	0.011188 
1824.659936  	0.011699 
1826.588752  	0.011839 
1828.517568  	0.011232 
1830.446384  	0.012350 
1832.375200  	0.011778 
1834.304016  	0.011110 
1836.232832  	0.010953 
1838.161648  	0.011458 
1840.090464  	0.011146 
1842.019280  	0.010860 
1843.948096  	0.011407 
1845.876912  	0.012201 
1847.805728  	0.011763 
1849.734544  	0.011401 
1851.663360  	0.010535 
1853.592176  	0.010632 
1855.520992  	0.010420 
1857.449808  	0.010961 
1859.378624  	0.011049 
1861.307440  	0.010941 
1863.236256  	0.010228 
1865.165072  	0.010359 
1867.093888  	0.010844 
1869.022704  	0.012298 
1870.951520  	0.011495 
1872.880336  	0.010484 
1874.809152  	0.010143 
1876.737968  	0.010149 
1878.666784  	0.009671 
1880.595600  	0.009763 
1882.524416  	0.009923 
1884.453232  	0.010156 
1886.382048  	0.009746 
1888.310864  	0.010117 
1890.239680  	0.010689 
1892.168496  	0.010346 
1894.097312  	0.010068 
1896.026128  	0.010557 
1897.954944  	0.009814 
1899.883760  	0.009750 
1901.812576  	0.009547 
1903.741392  	0.009819 
1905.670208  	0.009481 
1907.599024  	0.009685 
1909.527840  	0.009666 
1911.456656  	0.009666 
1913.385472  	0.009321 
1915.314288  	0.009799 
1917.243104  	0.010318 
1919.171920  	0.010511 
1921.100736  	0.009919 
1923.029552  	0.010775 
1924.958368  	0.009536 
1926.887184  	0.009123 
1928.816000  	0.008389 
1930.744816  	0.008030 
1932.673632  	0.008057 
1934.602448  	0.008885 
1936.531264  	0.008907 
1938.460080  	0.008728 
1940.388896  	0.008598 
1942.317712  	0.010057 
1944.246528  	0.009484 
1946.175344  	0.009092 
1948.104160  	0.008408 
1950.032976  	0.008765 
1951.961792  	0.009079 
1953.890608  	0.009599 
1955.819424  	0.008588 
1957.748240  	0.008228 
1959.677056  	0.008771 
1961.605872  	0.009419 
1963.534688  	0.008699 
1965.463504  	0.009744 
1967.392320  	0.009567 
1969.321136  	0.008345 
1971.249952  	0.007779 
1973.178768  	0.009967 
1975.107584  	0.009037 
1977.036400  	0.008760 
1978.965216  	0.010888 
1980.894032  	0.011218 
1982.822848  	0.008972 
1984.751664  	0.009499 
1986.680480  	0.009846 
1988.609296  	0.010690 
1990.538112  	0.010594 
1992.466928  	0.010810 
1994.395744  	0.009340 
1996.324560  	0.009096 
1998.253376  	0.008965 
2000.182192  	0.009369 
2002.111008  	0.009608 
2004.039824  	0.009771 
2005.968640  	0.008947 
2007.897456  	0.010384 
2009.826272  	0.010411 
2011.755088  	0.009281 
2013.683904  	0.009160 
2015.612720  	0.010628 
2017.541536  	0.010360 
2019.470352  	0.009831 
2021.399168  	0.009266 
2023.327984  	0.010057 
2025.256800  	0.009774 
2027.185616  	0.009462 
2029.114432  	0.008576 
2031.043248  	0.009741 
2032.972064  	0.010145 
2034.900880  	0.011037 
2036.829696  	0.010485 
2038.758512  	0.010632 
2040.687328  	0.010681 
2042.616144  	0.010483 
2044.544960  	0.009787 
2046.473776  	0.010351 
2048.402592  	0.010615 
2050.331408  	0.012012 
2052.260224  	0.011061 
2054.189040  	0.010263 
2056.117856  	0.010160 
2058.046672  	0.011042 
2059.975488  	0.010869 
2061.904304  	0.010419 
2063.833120  	0.011286 
2065.761936  	0.011685 
2067.690752  	0.010833 
2069.619568  	0.010612 
2071.548384  	0.009804 
2073.477200  	0.009829 
2075.406016  	0.010581 
2077.334832  	0.010985 
2079.263648  	0.010167 
2081.192464  	0.010129 
2083.121280  	0.010941 
2085.050096  	0.011432 
2086.978912  	0.011113 
2088.907728  	0.011036 
2090.836544  	0.010317 
2092.765360  	0.009916 
2094.694176  	0.010120 
2096.622992  	0.010257 
2098.551808  	0.009782 
2100.480624  	0.010039 
2102.409440  	0.010117 
2104.338256  	0.010692 
2106.267072  	0.010758 
2108.195888  	0.010742 
2110.124704  	0.011426 
2112.053520  	0.012319 
2113.982336  	0.011484 
2115.911152  	0.011004 
2117.839968  	0.010552 
2119.768784  	0.010311 
2121.697600  	0.010168 
2123.626416  	0.009912 
2125.555232  	0.009459 
2127.484048  	0.009749 
2129.412864  	0.009196 
2131.341680  	0.008336 
2133.270496  	0.009014 
2135.199312  	0.010246 
2137.128128  	0.010781 
2139.056944  	0.010679 
2140.985760  	0.009539 
2142.914576  	0.010364 
2144.843392  	0.010244 
2146.772208  	0.010237 
2148.701024  	0.009923 
2150.629840  	0.010092 
2152.558656  	0.009265 
2154.487472  	0.008184 
2156.416288  	0.006999 
2158.345104  	0.009664 
2160.273920  	0.012911 
2162.202736  	0.013442 
2164.131552  	0.012885 
2166.060368  	0.014309 
2167.989184  	0.012936 
2169.918000  	0.012384 
2171.846816  	0.012244 
2173.775632  	0.012688 
2175.704448  	0.012686 
2177.633264  	0.012472 
2179.562080  	0.011694 
2181.490896  	0.011410 
2183.419712  	0.011466 
2185.348528  	0.012675 
2187.277344  	0.012403 
2189.206160  	0.012101 
2191.134976  	0.013026 
2193.063792  	0.014004 
2194.992608  	0.013796 
2196.921424  	0.012703 
2198.850240  	0.013181 
2200.779056  	0.013767 
2202.707872  	0.013252 
2204.636688  	0.013247 
2206.565504  	0.013170 
2208.494320  	0.013177 
2210.423136  	0.011964 
2212.351952  	0.012252 
2214.280768  	0.012340 
2216.209584  	0.011921 
2218.138400  	0.011733 
2220.067216  	0.012020 
2221.996032  	0.012040 
2223.924848  	0.011839 
2225.853664  	0.012175 
2227.782480  	0.012829 
2229.711296  	0.012855 
2231.640112  	0.012561 
2233.568928  	0.012070 
2235.497744  	0.012228 
2237.426560  	0.011841 
2239.355376  	0.011839 
2241.284192  	0.011787 
2243.213008  	0.011808 
2245.141824  	0.011764 
2247.070640  	0.011480 
2248.999456  	0.011229 
2250.928272  	0.011666 
2252.857088  	0.011223 
2254.785904  	0.010936 
2256.714720  	0.011420 
2258.643536  	0.011978 
2260.572352  	0.011906 
2262.501168  	0.011924 
2264.429984  	0.012049 
2266.358800  	0.012153 
2268.287616  	0.011909 
2270.216432  	0.011945 
2272.145248  	0.011909 
2274.074064  	0.011983 
2276.002880  	0.011869 
2277.931696  	0.012625 
2279.860512  	0.013000 
2281.789328  	0.012973 
2283.718144  	0.012943 
2285.646960  	0.013284 
2287.575776  	0.013366 
2289.504592  	0.013049 
2291.433408  	0.012611 
2293.362224  	0.012665 
2295.291040  	0.012775 
2297.219856  	0.012994 
2299.148672  	0.012914 
2301.077488  	0.012729 
2303.006304  	0.012773 
2304.935120  	0.012781 
2306.863936  	0.012542 
2308.792752  	0.012351 
2310.721568  	0.012114 
2312.650384  	0.011621 
2314.579200  	0.010725 
2316.508016  	0.010168 
2318.436832  	0.009321 
2320.365648  	0.008428 
2322.294464  	0.007638 
2324.223280  	0.006406 
2326.152096  	0.004429 
2328.080912  	0.002928 
2330.009728  	0.001528 
2331.938544  	0.000459 
2333.867360  	-0.000820 
2335.796176  	-0.001773 
2337.724992  	-0.002287 
2339.653808  	-0.002431 
2341.582624  	-0.002231 
2343.511440  	-0.000527 
2345.440256  	0.002475 
2347.369072  	0.005757 
2349.297888  	0.005452 
2351.226704  	0.002290 
2353.155520  	-0.001141 
2355.084336  	-0.004229 
2357.013152  	-0.006385 
2358.941968  	-0.007298 
2360.870784  	-0.007587 
2362.799600  	-0.006643 
2364.728416  	-0.005338 
2366.657232  	-0.003264 
2368.586048  	-0.000864 
2370.514864  	0.002260 
2372.443680  	0.005188 
2374.372496  	0.007867 
2376.301312  	0.010158 
2378.230128  	0.011885 
2380.158944  	0.012632 
2382.087760  	0.013060 
2384.016576  	0.013199 
2385.945392  	0.013108 
2387.874208  	0.012709 
2389.803024  	0.012355 
2391.731840  	0.012088 
2393.660656  	0.012076 
2395.589472  	0.012375 
2397.518288  	0.012646 
2399.447104  	0.012690 
2401.375920  	0.012434 
2403.304736  	0.012317 
2405.233552  	0.012422 
2407.162368  	0.012597 
2409.091184  	0.012598 
2411.020000  	0.012461 
2412.948816  	0.012631 
2414.877632  	0.012741 
2416.806448  	0.013048 
2418.735264  	0.013281 
2420.664080  	0.013183 
2422.592896  	0.012887 
2424.521712  	0.012945 
2426.450528  	0.013071 
2428.379344  	0.013036 
2430.308160  	0.013149 
2432.236976  	0.013400 
2434.165792  	0.013684 
2436.094608  	0.013908 
2438.023424  	0.013865 
2439.952240  	0.014065 
2441.881056  	0.014316 
2443.809872  	0.014209 
2445.738688  	0.014030 
2447.667504  	0.014054 
2449.596320  	0.014000 
2451.525136  	0.014048 
2453.453952  	0.014236 
2455.382768  	0.014703 
2457.311584  	0.014986 
2459.240400  	0.014788 
2461.169216  	0.014502 
2463.098032  	0.014407 
2465.026848  	0.014380 
2466.955664  	0.014375 
2468.884480  	0.014318 
2470.813296  	0.014476 
2472.742112  	0.014512 
2474.670928  	0.014554 
2476.599744  	0.014673 
2478.528560  	0.014694 
2480.457376  	0.014941 
2482.386192  	0.015111 
2484.315008  	0.015088 
2486.243824  	0.015182 
2488.172640  	0.015069 
2490.101456  	0.015080 
2492.030272  	0.015186 
2493.959088  	0.015064 
2495.887904  	0.014872 
2497.816720  	0.015128 
2499.745536  	0.015500 
2501.674352  	0.015649 
2503.603168  	0.015478 
2505.531984  	0.015633 
2507.460800  	0.015892 
2509.389616  	0.015914 
2511.318432  	0.015717 
2513.247248  	0.015761 
2515.176064  	0.015832 
2517.104880  	0.016203 
2519.033696  	0.016533 
2520.962512  	0.016550 
2522.891328  	0.016630 
2524.820144  	0.016587 
2526.748960  	0.016458 
2528.677776  	0.016702 
2530.606592  	0.016918 
2532.535408  	0.016847 
2534.464224  	0.016914 
2536.393040  	0.017083 
2538.321856  	0.016935 
2540.250672  	0.017050 
2542.179488  	0.017104 
2544.108304  	0.017411 
2546.037120  	0.017509 
2547.965936  	0.017790 
2549.894752  	0.017951 
2551.823568  	0.017901 
2553.752384  	0.017873 
2555.681200  	0.017998 
2557.610016  	0.018005 
2559.538832  	0.018161 
2561.467648  	0.018205 
2563.396464  	0.018377 
2565.325280  	0.018823 
2567.254096  	0.018946 
2569.182912  	0.018634 
2571.111728  	0.018503 
2573.040544  	0.018389 
2574.969360  	0.018499 
2576.898176  	0.018929 
2578.826992  	0.019304 
2580.755808  	0.019125 
2582.684624  	0.018945 
2584.613440  	0.018938 
2586.542256  	0.019255 
2588.471072  	0.019466 
2590.399888  	0.019369 
2592.328704  	0.019446 
2594.257520  	0.019691 
2596.186336  	0.020039 
2598.115152  	0.020189 
2600.043968  	0.020062 
2601.972784  	0.020125 
2603.901600  	0.020336 
2605.830416  	0.020505 
2607.759232  	0.020391 
2609.688048  	0.020459 
2611.616864  	0.020752 
2613.545680  	0.020907 
2615.474496  	0.020912 
2617.403312  	0.020992 
2619.332128  	0.021230 
2621.260944  	0.021347 
2623.189760  	0.021304 
2625.118576  	0.021438 
2627.047392  	0.021657 
2628.976208  	0.021909 
2630.905024  	0.022046 
2632.833840  	0.022303 
2634.762656  	0.022400 
2636.691472  	0.022424 
2638.620288  	0.022505 
2640.549104  	0.022691 
2642.477920  	0.022815 
2644.406736  	0.022842 
2646.335552  	0.023028 
2648.264368  	0.023273 
2650.193184  	0.023489 
2652.122000  	0.023695 
2654.050816  	0.023809 
2655.979632  	0.023799 
2657.908448  	0.023839 
2659.837264  	0.023888 
2661.766080  	0.023903 
2663.694896  	0.024051 
2665.623712  	0.024047 
2667.552528  	0.024026 
2669.481344  	0.024237 
2671.410160  	0.024476 
2673.338976  	0.024588 
2675.267792  	0.024742 
2677.196608  	0.025019 
2679.125424  	0.025315 
2681.054240  	0.025436 
2682.983056  	0.025487 
2684.911872  	0.025609 
2686.840688  	0.025730 
2688.769504  	0.025879 
2690.698320  	0.025996 
2692.627136  	0.026083 
2694.555952  	0.026145 
2696.484768  	0.026078 
2698.413584  	0.026204 
2700.342400  	0.026401 
2702.271216  	0.026615 
2704.200032  	0.026892 
2706.128848  	0.027059 
2708.057664  	0.027159 
2709.986480  	0.027250 
2711.915296  	0.027351 
2713.844112  	0.027435 
2715.772928  	0.027594 
2717.701744  	0.027886 
2719.630560  	0.027971 
2721.559376  	0.027966 
2723.488192  	0.028064 
2725.417008  	0.028423 
2727.345824  	0.028646 
2729.274640  	0.028585 
2731.203456  	0.028574 
2733.132272  	0.028783 
2735.061088  	0.028970 
2736.989904  	0.029017 
2738.918720  	0.029065 
2740.847536  	0.029037 
2742.776352  	0.029112 
2744.705168  	0.029332 
2746.633984  	0.029414 
2748.562800  	0.029576 
2750.491616  	0.029652 
2752.420432  	0.029637 
2754.349248  	0.029648 
2756.278064  	0.029713 
2758.206880  	0.029776 
2760.135696  	0.029992 
2762.064512  	0.029979 
2763.993328  	0.029886 
2765.922144  	0.029904 
2767.850960  	0.029925 
2769.779776  	0.029944 
2771.708592  	0.030064 
2773.637408  	0.030128 
2775.566224  	0.030139 
2777.495040  	0.030130 
2779.423856  	0.030207 
2781.352672  	0.030363 
2783.281488  	0.030451 
2785.210304  	0.030460 
2787.139120  	0.030529 
2789.067936  	0.030618 
2790.996752  	0.030674 
2792.925568  	0.030732 
2794.854384  	0.030814 
2796.783200  	0.030899 
2798.712016  	0.030870 
2800.640832  	0.030836 
2802.569648  	0.031005 
2804.498464  	0.031153 
2806.427280  	0.031190 
2808.356096  	0.031324 
2810.284912  	0.031518 
2812.213728  	0.031456 
2814.142544  	0.031415 
2816.071360  	0.031525 
2818.000176  	0.031403 
2819.928992  	0.031253 
2821.857808  	0.031171 
2823.786624  	0.031048 
2825.715440  	0.030962 
2827.644256  	0.030890 
2829.573072  	0.030833 
2831.501888  	0.030576 
2833.430704  	0.030189 
2835.359520  	0.029846 
2837.288336  	0.029460 
2839.217152  	0.029124 
2841.145968  	0.028739 
2843.074784  	0.028416 
2845.003600  	0.028379 
2846.932416  	0.028555 
2848.861232  	0.028574 
2850.790048  	0.028062 
2852.718864  	0.027025 
2854.647680  	0.025730 
2856.576496  	0.024567 
2858.505312  	0.023407 
2860.434128  	0.022215 
2862.362944  	0.020916 
2864.291760  	0.019576 
2866.220576  	0.018371 
2868.149392  	0.017712 
2870.078208  	0.017528 
2872.007024  	0.017570 
2873.935840  	0.017616 
2875.864656  	0.017406 
2877.793472  	0.016895 
2879.722288  	0.016173 
2881.651104  	0.015150 
2883.579920  	0.014344 
2885.508736  	0.014417 
2887.437552  	0.014900 
2889.366368  	0.014934 
2891.295184  	0.014347 
2893.224000  	0.013843 
2895.152816  	0.014044 
2897.081632  	0.013376 
2899.010448  	0.010638 
2900.939264  	0.008470 
2902.868080  	0.010465 
2904.796896  	0.012602 
2906.725712  	0.013482 
2908.654528  	0.014255 
2910.583344  	0.015088 
2912.512160  	0.016939 
2914.440976  	0.019457 
2916.369792  	0.021012 
2918.298608  	0.021756 
2920.227424  	0.022137 
2922.156240  	0.022716 
2924.085056  	0.023645 
2926.013872  	0.024594 
2927.942688  	0.025458 
2929.871504  	0.026412 
2931.800320  	0.027213 
2933.729136  	0.027749 
2935.657952  	0.027979 
2937.586768  	0.028312 
2939.515584  	0.028381 
2941.444400  	0.028125 
2943.373216  	0.027993 
2945.302032  	0.027919 
2947.230848  	0.027815 
2949.159664  	0.027277 
2951.088480  	0.026117 
2953.017296  	0.025154 
2954.946112  	0.024263 
2956.874928  	0.023075 
2958.803744  	0.021845 
2960.732560  	0.020946 
2962.661376  	0.020032 
2964.590192  	0.018692 
2966.519008  	0.017144 
2968.447824  	0.015626 
2970.376640  	0.014430 
2972.305456  	0.013864 
2974.234272  	0.014208 
2976.163088  	0.014341 
2978.091904  	0.014134 
2980.020720  	0.013730 
2981.949536  	0.013353 
2983.878352  	0.012178 
2985.807168  	0.010202 
2987.735984  	0.008666 
2989.664800  	0.009302 
2991.593616  	0.014162 
2993.522432  	0.017048 
2995.451248  	0.017750 
2997.380064  	0.018981 
2999.308880  	0.020803 
3001.237696  	0.022864 
3003.166512  	0.024951 
3005.095328  	0.027044 
3007.024144  	0.029244 
3008.952960  	0.031442 
3010.881776  	0.033672 
3012.810592  	0.035896 
3014.739408  	0.037910 
3016.668224  	0.039847 
3018.597040  	0.041599 
3020.525856  	0.043116 
3022.454672  	0.044658 
3024.383488  	0.046463 
3026.312304  	0.048039 
3028.241120  	0.049161 
3030.169936  	0.050398 
3032.098752  	0.051875 
3034.027568  	0.052785 
3035.956384  	0.053452 
3037.885200  	0.054424 
3039.814016  	0.055551 
3041.742832  	0.056428 
3043.671648  	0.057067 
3045.600464  	0.057756 
3047.529280  	0.058440 
3049.458096  	0.059066 
3051.386912  	0.059440 
3053.315728  	0.060002 
3055.244544  	0.060826 
3057.173360  	0.061660 
3059.102176  	0.062132 
3061.030992  	0.062516 
3062.959808  	0.063120 
3064.888624  	0.063919 
3066.817440  	0.064680 
3068.746256  	0.065185 
3070.675072  	0.065558 
3072.603888  	0.066303 
3074.532704  	0.067130 
3076.461520  	0.067687 
3078.390336  	0.068331 
3080.319152  	0.069137 
3082.247968  	0.069879 
3084.176784  	0.070496 
3086.105600  	0.070893 
3088.034416  	0.071428 
3089.963232  	0.072153 
3091.892048  	0.072792 
3093.820864  	0.073290 
3095.749680  	0.073934 
3097.678496  	0.074547 
3099.607312  	0.075280 
3101.536128  	0.076005 
3103.464944  	0.076628 
3105.393760  	0.077178 
3107.322576  	0.077780 
3109.251392  	0.078448 
3111.180208  	0.079000 
3113.109024  	0.079577 
3115.037840  	0.080058 
3116.966656  	0.080615 
3118.895472  	0.081217 
3120.824288  	0.081633 
3122.753104  	0.082097 
3124.681920  	0.082702 
3126.610736  	0.083187 
3128.539552  	0.083490 
3130.468368  	0.083750 
3132.397184  	0.084006 
3134.326000  	0.084337 
3136.254816  	0.084795 
3138.183632  	0.085285 
3140.112448  	0.085802 
3142.041264  	0.086322 
3143.970080  	0.086664 
3145.898896  	0.087013 
3147.827712  	0.087598 
3149.756528  	0.088187 
3151.685344  	0.088766 
3153.614160  	0.089462 
3155.542976  	0.089848 
3157.471792  	0.090088 
3159.400608  	0.090755 
3161.329424  	0.091482 
3163.258240  	0.092037 
3165.187056  	0.092580 
3167.115872  	0.092955 
3169.044688  	0.093216 
3170.973504  	0.093490 
3172.902320  	0.093705 
3174.831136  	0.094130 
3176.759952  	0.094676 
3178.688768  	0.095162 
3180.617584  	0.095427 
3182.546400  	0.095498 
3184.475216  	0.095848 
3186.404032  	0.096143 
3188.332848  	0.096251 
3190.261664  	0.096490 
3192.190480  	0.096620 
3194.119296  	0.096414 
3196.048112  	0.096235 
3197.976928  	0.096561 
3199.905744  	0.096753 
3201.834560  	0.096640 
3203.763376  	0.096620 
3205.692192  	0.096685 
3207.621008  	0.096683 
3209.549824  	0.096507 
3211.478640  	0.096202 
3213.407456  	0.095959 
3215.336272  	0.095868 
3217.265088  	0.095714 
3219.193904  	0.095484 
3221.122720  	0.095215 
3223.051536  	0.094888 
3224.980352  	0.094599 
3226.909168  	0.094258 
3228.837984  	0.094032 
3230.766800  	0.094050 
3232.695616  	0.094155 
3234.624432  	0.094047 
3236.553248  	0.094025 
3238.482064  	0.094006 
3240.410880  	0.093905 
3242.339696  	0.093705 
3244.268512  	0.093672 
3246.197328  	0.093894 
3248.126144  	0.094003 
3250.054960  	0.093874 
3251.983776  	0.093758 
3253.912592  	0.094016 
3255.841408  	0.094267 
3257.770224  	0.094592 
3259.699040  	0.094843 
3261.627856  	0.095051 
3263.556672  	0.095248 
3265.485488  	0.095338 
3267.414304  	0.095541 
3269.343120  	0.095672 
3271.271936  	0.095938 
3273.200752  	0.096325 
3275.129568  	0.096631 
3277.058384  	0.096779 
3278.987200  	0.096853 
3280.916016  	0.097013 
3282.844832  	0.097193 
3284.773648  	0.097267 
3286.702464  	0.097321 
3288.631280  	0.097673 
3290.560096  	0.097951 
3292.488912  	0.098286 
3294.417728  	0.098682 
3296.346544  	0.098754 
3298.275360  	0.098902 
3300.204176  	0.099390 
3302.132992  	0.099809 
3304.061808  	0.100256 
3305.990624  	0.100612 
3307.919440  	0.100849 
3309.848256  	0.100898 
3311.777072  	0.100997 
3313.705888  	0.101455 
3315.634704  	0.102111 
3317.563520  	0.102444 
3319.492336  	0.102484 
3321.421152  	0.102600 
3323.349968  	0.102876 
3325.278784  	0.103172 
3327.207600  	0.103405 
3329.136416  	0.103392 
3331.065232  	0.103044 
3332.994048  	0.102975 
3334.922864  	0.103275 
3336.851680  	0.103217 
3338.780496  	0.103060 
3340.709312  	0.102832 
3342.638128  	0.102588 
3344.566944  	0.102362 
3346.495760  	0.102100 
3348.424576  	0.101822 
3350.353392  	0.101487 
3352.282208  	0.101068 
3354.211024  	0.100946 
3356.139840  	0.100733 
3358.068656  	0.100192 
3359.997472  	0.099842 
3361.926288  	0.099484 
3363.855104  	0.098779 
3365.783920  	0.098255 
3367.712736  	0.098058 
3369.641552  	0.097559 
3371.570368  	0.096839 
3373.499184  	0.096463 
3375.428000  	0.095970 
3377.356816  	0.095481 
3379.285632  	0.095159 
3381.214448  	0.094749 
3383.143264  	0.094339 
3385.072080  	0.094119 
3387.000896  	0.093574 
3388.929712  	0.093063 
3390.858528  	0.092618 
3392.787344  	0.092269 
3394.716160  	0.091592 
3396.644976  	0.091173 
3398.573792  	0.090626 
3400.502608  	0.089809 
3402.431424  	0.089234 
3404.360240  	0.088827 
3406.289056  	0.088480 
3408.217872  	0.087909 
3410.146688  	0.087149 
3412.075504  	0.086925 
3414.004320  	0.086522 
3415.933136  	0.085818 
3417.861952  	0.085300 
3419.790768  	0.085092 
3421.719584  	0.084698 
3423.648400  	0.083864 
3425.577216  	0.083096 
3427.506032  	0.082562 
3429.434848  	0.081910 
3431.363664  	0.081448 
3433.292480  	0.081041 
3435.221296  	0.080560 
3437.150112  	0.079863 
3439.078928  	0.079245 
3441.007744  	0.078785 
3442.936560  	0.078524 
3444.865376  	0.077867 
3446.794192  	0.077250 
3448.723008  	0.076524 
3450.651824  	0.075340 
3452.580640  	0.074463 
3454.509456  	0.073862 
3456.438272  	0.073414 
3458.367088  	0.072872 
3460.295904  	0.072392 
3462.224720  	0.071699 
3464.153536  	0.070747 
3466.082352  	0.070164 
3468.011168  	0.069633 
3469.939984  	0.068755 
3471.868800  	0.067774 
3473.797616  	0.067109 
3475.726432  	0.066321 
3477.655248  	0.065335 
3479.584064  	0.064788 
3481.512880  	0.064575 
3483.441696  	0.063627 
3485.370512  	0.062463 
3487.299328  	0.061988 
3489.228144  	0.061373 
3491.156960  	0.060211 
3493.085776  	0.059433 
3495.014592  	0.058984 
3496.943408  	0.058498 
3498.872224  	0.057585 
3500.801040  	0.057147 
3502.729856  	0.056953 
3504.658672  	0.056149 
3506.587488  	0.054774 
3508.516304  	0.054393 
3510.445120  	0.054264 
3512.373936  	0.053384 
3514.302752  	0.052489 
3516.231568  	0.051800 
3518.160384  	0.051152 
3520.089200  	0.050649 
3522.018016  	0.050530 
3523.946832  	0.050903 
3525.875648  	0.050161 
3527.804464  	0.049232 
3529.733280  	0.048511 
3531.662096  	0.047625 
3533.590912  	0.046690 
3535.519728  	0.046433 
3537.448544  	0.046151 
3539.377360  	0.045109 
3541.306176  	0.044171 
3543.234992  	0.044066 
3545.163808  	0.045124 
3547.092624  	0.045066 
3549.021440  	0.042905 
3550.950256  	0.041728 
3552.879072  	0.042075 
3554.807888  	0.041169 
3556.736704  	0.039726 
3558.665520  	0.039496 
3560.594336  	0.039671 
3562.523152  	0.038838 
3564.451968  	0.038332 
3566.380784  	0.039966 
3568.309600  	0.040654 
3570.238416  	0.037789 
3572.167232  	0.035402 
3574.096048  	0.034676 
3576.024864  	0.034127 
3577.953680  	0.033482 
3579.882496  	0.033226 
3581.811312  	0.032630 
3583.740128  	0.031497 
3585.668944  	0.031177 
3587.597760  	0.033146 
3589.526576  	0.032160 
3591.455392  	0.028855 
3593.384208  	0.028331 
3595.313024  	0.028731 
3597.241840  	0.027435 
3599.170656  	0.025835 
3601.099472  	0.025372 
3603.028288  	0.024543 
3604.957104  	0.023186 
3606.885920  	0.022940 
3608.814736  	0.024088 
3610.743552  	0.022733 
3612.672368  	0.021679 
3614.601184  	0.021380 
3616.530000  	0.019035 
3618.458816  	0.018733 
3620.387632  	0.019281 
3622.316448  	0.016911 
3624.245264  	0.014457 
3626.174080  	0.012409 
3628.102896  	0.013247 
3630.031712  	0.016718 
3631.960528  	0.013325 
3633.889344  	0.011331 
3635.818160  	0.010005 
3637.746976  	0.008553 
3639.675792  	0.007862 
3641.604608  	0.006919 
3643.533424  	0.005055 
3645.462240  	0.002650 
3647.391056  	0.002956 
3649.319872  	0.004729 
3651.248688  	0.005568 
3653.177504  	0.001610 
3655.106320  	-0.001379 
3657.035136  	-0.000834 
3658.963952  	-0.002564 
3660.892768  	-0.004405 
3662.821584  	-0.005231 
3664.750400  	-0.005638 
3666.679216  	-0.007137 
3668.608032  	-0.007690 
3670.536848  	-0.004657 
3672.465664  	-0.005987 
3674.394480  	-0.008808 
3676.323296  	-0.004432 
3678.252112  	-0.003551 
3680.180928  	-0.004078 
3682.109744  	-0.005744 
3684.038560  	-0.007175 
3685.967376  	-0.008678 
3687.896192  	-0.008540 
3689.825008  	-0.005427 
3691.753824  	-0.004365 
3693.682640  	-0.005046 
3695.611456  	-0.005313 
3697.540272  	-0.004384 
3699.469088  	-0.004290 
3701.397904  	-0.002495 
3703.326720  	-0.001034 
3705.255536  	-0.001837 
3707.184352  	-0.002636 
3709.113168  	-0.002413 
3711.041984  	-0.000051 
3712.970800  	0.002893 
3714.899616  	0.002163 
3716.828432  	0.000215 
3718.757248  	-0.000233 
3720.686064  	-0.000200 
3722.614880  	0.001101 
3724.543696  	0.001819 
3726.472512  	0.002504 
3728.401328  	0.001228 
3730.330144  	-0.001732 
3732.258960  	-0.001322 
3734.187776  	0.001612 
3736.116592  	0.005354 
3738.045408  	0.003858 
3739.974224  	0.001175 
3741.903040  	-0.001047 
3743.831856  	0.000533 
3745.760672  	0.005092 
3747.689488  	0.000501 
3749.618304  	-0.000309 
3751.547120  	0.003020 
3753.475936  	0.004359 
3755.404752  	0.001905 
3757.333568  	0.000918 
3759.262384  	0.001548 
3761.191200  	0.002380 
3763.120016  	0.001003 
3765.048832  	0.001363 
3766.977648  	0.001523 
3768.906464  	0.000774 
3770.835280  	0.002413 
3772.764096  	0.001948 
3774.692912  	0.000696 
3776.621728  	-0.000359 
3778.550544  	-0.000012 
3780.479360  	0.001784 
3782.408176  	0.001049 
3784.336992  	0.000954 
3786.265808  	0.001429 
3788.194624  	0.001021 
3790.123440  	0.000750 
3792.052256  	0.000477 
3793.981072  	-0.000329 
3795.909888  	0.000256 
3797.838704  	0.000945 
3799.767520  	-0.001178 
3801.696336  	0.001478 
3803.625152  	0.002326 
3805.553968  	-0.000355 
3807.482784  	0.001737 
3809.411600  	0.001867 
3811.340416  	0.000612 
3813.269232  	-0.000985 
3815.198048  	-0.001135 
3817.126864  	0.001492 
3819.055680  	-0.000684 
3820.984496  	0.001255 
3822.913312  	0.003815 
3824.842128  	0.001244 
3826.770944  	0.001172 
3828.699760  	0.000711 
3830.628576  	-0.000347 
3832.557392  	0.000342 
3834.486208  	-0.000184 
3836.415024  	-0.000515 
3838.343840  	0.001476 
3840.272656  	0.002539 
3842.201472  	0.001708 
3844.130288  	0.001863 
3846.059104  	0.001466 
3847.987920  	-0.000118 
3849.916736  	-0.001570 
3851.845552  	-0.002065 
3853.774368  	0.004286 
3855.703184  	0.005328 
3857.632000  	0.002336 
3859.560816  	0.000324 
3861.489632  	0.000078 
3863.418448  	0.000979 
3865.347264  	0.002492 
3867.276080  	0.000623 
3869.204896  	0.000666 
3871.133712  	0.003733 
3873.062528  	0.001964 
3874.991344  	0.002600 
3876.920160  	0.000754 
3878.848976  	-0.000238 
3880.777792  	0.002747 
3882.706608  	0.002460 
3884.635424  	0.001189 
3886.564240  	0.003164 
3888.493056  	0.000845 
3890.421872  	0.000417 
3892.350688  	0.002964 
3894.279504  	0.002211 
3896.208320  	0.000439 
3898.137136  	0.000528 
3900.065952  	0.002097 
3901.994768  	0.002874 
3903.923584  	0.004097 
3905.852400  	0.004328 
3907.781216  	0.002118 
3909.710032  	0.000619 
3911.638848  	0.000610 
3913.567664  	0.000629 
3915.496480  	0.000986 
3917.425296  	0.002771 
3919.354112  	0.002817 
3921.282928  	0.002003 
3923.211744  	0.001542 
3925.140560  	0.002449 
3927.069376  	0.001692 
3928.998192  	0.000945 
3930.927008  	0.002105 
3932.855824  	0.003399 
3934.784640  	0.002507 
3936.713456  	0.001466 
3938.642272  	0.001290 
3940.571088  	0.001099 
3942.499904  	0.002351 
3944.428720  	0.002497 
3946.357536  	0.001565 
3948.286352  	0.002241 
3950.215168  	0.002279 
3952.143984  	0.001440 
3954.072800  	0.001034 
3956.001616  	0.001044 
3957.930432  	0.001021 
3959.859248  	0.001193 
3961.788064  	0.001674 
3963.716880  	0.001599 
3965.645696  	0.001039 
3967.574512  	0.001075 
3969.503328  	0.001231 
3971.432144  	0.001093 
3973.360960  	0.001035 
3975.289776  	0.001389 
3977.218592  	0.001389 
3979.147408  	0.001180 
3981.076224  	0.001067 
3983.005040  	0.001030 
3984.933856  	0.000901 
3986.862672  	0.000858 
3988.791488  	0.000901 
3990.720304  	0.001153 
3992.649120  	0.001171 
3994.577936  	0.001169 
3996.506752  	0.001093 
3998.435568  	0.001087 
4000.364384  	0.000986 