##TITLE=No Description
##DATA TYPE=INFRARED SPECTRUM
##XUNITS=1/CM
##YUNITS=Abs
399.264912  	0.635800 
401.193728  	0.620536 
403.122544  	0.624013 
405.051360  	0.614163 
406.980176  	0.600922 
408.908992  	0.595912 
410.837808  	0.598477 
412.766624  	0.598901 
414.695440  	0.605089 
416.624256  	0.607633 
418.553072  	0.613310 
420.481888  	0.604911 
422.410704  	0.596344 
424.339520  	0.576481 
426.268336  	0.578486 
428.197152  	0.576986 
430.125968  	0.577715 
432.054784  	0.577562 
433.983600  	0.576661 
435.912416  	0.563729 
437.841232  	0.558112 
439.770048  	0.554263 
441.698864  	0.556992 
443.627680  	0.552100 
445.556496  	0.547314 
447.485312  	0.545595 
449.414128  	0.550833 
451.342944  	0.549715 
453.271760  	0.548430 
455.200576  	0.542267 
457.129392  	0.539731 
459.058208  	0.538254 
460.987024  	0.543619 
462.915840  	0.541270 
464.844656  	0.540259 
466.773472  	0.543974 
468.702288  	0.546881 
470.631104  	0.542186 
472.559920  	0.545239 
474.488736  	0.539525 
476.417552  	0.544251 
478.346368  	0.542621 
480.275184  	0.540812 
482.204000  	0.544454 
484.132816  	0.546442 
486.061632  	0.538000 
487.990448  	0.537870 
489.919264  	0.539179 
491.848080  	0.540629 
493.776896  	0.535543 
495.705712  	0.533867 
497.634528  	0.530421 
499.563344  	0.529548 
501.492160  	0.528266 
503.420976  	0.529029 
505.349792  	0.528659 
507.278608  	0.531803 
509.207424  	0.531016 
511.136240  	0.531473 
513.065056  	0.531720 
514.993872  	0.535411 
516.922688  	0.535957 
518.851504  	0.537412 
520.780320  	0.536477 
522.709136  	0.535807 
524.637952  	0.532232 
526.566768  	0.528872 
528.495584  	0.525405 
530.424400  	0.523107 
532.353216  	0.520711 
534.282032  	0.518576 
536.210848  	0.511980 
538.139664  	0.507460 
540.068480  	0.503016 
541.997296  	0.498436 
543.926112  	0.492371 
545.854928  	0.491821 
547.783744  	0.487959 
549.712560  	0.481436 
551.641376  	0.475872 
553.570192  	0.474225 
555.499008  	0.470750 
557.427824  	0.467858 
559.356640  	0.464292 
561.285456  	0.460297 
563.214272  	0.456393 
565.143088  	0.453698 
567.071904  	0.449657 
569.000720  	0.445564 
570.929536  	0.442197 
572.858352  	0.439922 
574.787168  	0.436572 
576.715984  	0.433379 
578.644800  	0.428833 
580.573616  	0.425279 
582.502432  	0.420726 
584.431248  	0.417853 
586.360064  	0.415319 
588.288880  	0.412278 
590.217696  	0.409097 
592.146512  	0.407740 
594.075328  	0.405389 
596.004144  	0.403451 
597.932960  	0.401504 
599.861776  	0.400029 
601.790592  	0.398008 
603.719408  	0.396588 
605.648224  	0.394857 
607.577040  	0.394082 
609.505856  	0.393176 
611.434672  	0.392371 
613.363488  	0.389840 
615.292304  	0.388269 
617.221120  	0.386071 
619.149936  	0.384266 
621.078752  	0.382246 
623.007568  	0.380329 
624.936384  	0.378765 
626.865200  	0.377658 
628.794016  	0.376101 
630.722832  	0.374602 
632.651648  	0.373454 
634.580464  	0.373238 
636.509280  	0.373593 
638.438096  	0.373241 
640.366912  	0.372661 
642.295728  	0.371180 
644.224544  	0.368498 
646.153360  	0.365583 
648.082176  	0.361967 
650.010992  	0.358839 
651.939808  	0.354972 
653.868624  	0.351104 
655.797440  	0.346690 
657.726256  	0.342550 
659.655072  	0.338755 
661.583888  	0.335062 
663.512704  	0.331397 
665.441520  	0.328128 
667.370336  	0.322563 
669.299152  	0.317407 
671.227968  	0.315683 
673.156784  	0.313207 
675.085600  	0.310657 
677.014416  	0.308446 
678.943232  	0.306535 
680.872048  	0.305133 
682.800864  	0.303806 
684.729680  	0.302704 
686.658496  	0.300898 
688.587312  	0.299210 
690.516128  	0.297195 
692.444944  	0.295480 
694.373760  	0.294289 
696.302576  	0.293041 
698.231392  	0.290532 
700.160208  	0.287664 
702.089024  	0.284996 
704.017840  	0.282954 
705.946656  	0.280337 
707.875472  	0.277993 
709.804288  	0.275900 
711.733104  	0.274093 
713.661920  	0.272303 
715.590736  	0.271321 
717.519552  	0.270680 
719.448368  	0.271148 
721.377184  	0.272400 
723.306000  	0.272973 
725.234816  	0.272663 
727.163632  	0.271411 
729.092448  	0.269126 
731.021264  	0.266700 
732.950080  	0.263461 
734.878896  	0.260024 
736.807712  	0.256998 
738.736528  	0.254919 
740.665344  	0.253182 
742.594160  	0.251717 
744.522976  	0.250183 
746.451792  	0.248736 
748.380608  	0.247635 
750.309424  	0.247044 
752.238240  	0.246139 
754.167056  	0.245659 
756.095872  	0.244950 
758.024688  	0.243778 
759.953504  	0.243249 
761.882320  	0.243399 
763.811136  	0.243432 
765.739952  	0.242883 
767.668768  	0.241489 
769.597584  	0.239643 
771.526400  	0.239403 
773.455216  	0.241114 
775.384032  	0.244028 
777.312848  	0.248402 
779.241664  	0.252715 
781.170480  	0.253699 
783.099296  	0.250515 
785.028112  	0.245099 
786.956928  	0.238901 
788.885744  	0.233922 
790.814560  	0.230035 
792.743376  	0.227460 
794.672192  	0.225853 
796.601008  	0.224892 
798.529824  	0.222943 
800.458640  	0.219059 
802.387456  	0.215059 
804.316272  	0.213251 
806.245088  	0.212643 
808.173904  	0.212113 
810.102720  	0.211967 
812.031536  	0.212201 
813.960352  	0.212248 
815.889168  	0.212311 
817.817984  	0.212577 
819.746800  	0.212486 
821.675616  	0.212074 
823.604432  	0.211720 
825.533248  	0.210998 
827.462064  	0.209927 
829.390880  	0.208680 
831.319696  	0.207468 
833.248512  	0.205791 
835.177328  	0.203817 
837.106144  	0.201380 
839.034960  	0.198203 
840.963776  	0.194900 
842.892592  	0.191879 
844.821408  	0.188629 
846.750224  	0.185579 
848.679040  	0.183184 
850.607856  	0.180614 
852.536672  	0.178460 
854.465488  	0.176760 
856.394304  	0.175135 
858.323120  	0.173341 
860.251936  	0.171463 
862.180752  	0.169046 
864.109568  	0.166425 
866.038384  	0.164527 
867.967200  	0.162962 
869.896016  	0.161806 
871.824832  	0.161027 
873.753648  	0.161253 
875.682464  	0.162295 
877.611280  	0.162922 
879.540096  	0.163242 
881.468912  	0.164539 
883.397728  	0.164936 
885.326544  	0.164537 
887.255360  	0.163519 
889.184176  	0.161580 
891.112992  	0.158956 
893.041808  	0.156883 
894.970624  	0.154643 
896.899440  	0.151336 
898.828256  	0.147441 
900.757072  	0.144170 
902.685888  	0.141643 
904.614704  	0.140301 
906.543520  	0.140186 
908.472336  	0.141530 
910.401152  	0.144150 
912.329968  	0.147538 
914.258784  	0.151326 
916.187600  	0.154728 
918.116416  	0.157242 
920.045232  	0.158533 
921.974048  	0.158661 
923.902864  	0.158425 
925.831680  	0.157799 
927.760496  	0.156946 
929.689312  	0.156275 
931.618128  	0.156524 
933.546944  	0.156928 
935.475760  	0.157215 
937.404576  	0.157455 
939.333392  	0.157782 
941.262208  	0.158737 
943.191024  	0.160844 
945.119840  	0.164773 
947.048656  	0.170171 
948.977472  	0.176973 
950.906288  	0.184926 
952.835104  	0.193562 
954.763920  	0.202524 
956.692736  	0.211017 
958.621552  	0.218383 
960.550368  	0.223262 
962.479184  	0.225451 
964.408000  	0.224202 
966.336816  	0.219927 
968.265632  	0.212365 
970.194448  	0.202818 
972.123264  	0.191642 
974.052080  	0.179702 
975.980896  	0.167963 
977.909712  	0.157241 
979.838528  	0.148171 
981.767344  	0.140586 
983.696160  	0.135108 
985.624976  	0.132163 
987.553792  	0.131940 
989.482608  	0.134028 
991.411424  	0.138205 
993.340240  	0.143998 
995.269056  	0.151294 
997.197872  	0.159281 
999.126688  	0.166861 
1001.055504  	0.174625 
1002.984320  	0.182059 
1004.913136  	0.188989 
1006.841952  	0.195128 
1008.770768  	0.200407 
1010.699584  	0.203940 
1012.628400  	0.206115 
1014.557216  	0.207176 
1016.486032  	0.207673 
1018.414848  	0.207860 
1020.343664  	0.208296 
1022.272480  	0.208614 
1024.201296  	0.208077 
1026.130112  	0.204516 
1028.058928  	0.203611 
1029.987744  	0.208118 
1031.916560  	0.210911 
1033.845376  	0.212370 
1035.774192  	0.213453 
1037.703008  	0.215927 
1039.631824  	0.222945 
1041.560640  	0.232088 
1043.489456  	0.243468 
1045.418272  	0.257187 
1047.347088  	0.272770 
1049.275904  	0.288005 
1051.204720  	0.301414 
1053.133536  	0.310822 
1055.062352  	0.316275 
1056.991168  	0.316984 
1058.919984  	0.319110 
1060.848800  	0.321240 
1062.777616  	0.318396 
1064.706432  	0.309849 
1066.635248  	0.303059 
1068.564064  	0.301987 
1070.492880  	0.297383 
1072.421696  	0.288897 
1074.350512  	0.281959 
1076.279328  	0.277650 
1078.208144  	0.276672 
1080.136960  	0.277588 
1082.065776  	0.278947 
1083.994592  	0.279898 
1085.923408  	0.279746 
1087.852224  	0.277640 
1089.781040  	0.274665 
1091.709856  	0.270281 
1093.638672  	0.262693 
1095.567488  	0.252144 
1097.496304  	0.240602 
1099.425120  	0.228392 
1101.353936  	0.216485 
1103.282752  	0.204637 
1105.211568  	0.192932 
1107.140384  	0.181932 
1109.069200  	0.171728 
1110.998016  	0.162212 
1112.926832  	0.153272 
1114.855648  	0.144811 
1116.784464  	0.136588 
1118.713280  	0.129008 
1120.642096  	0.122035 
1122.570912  	0.115271 
1124.499728  	0.108832 
1126.428544  	0.102866 
1128.357360  	0.097292 
1130.286176  	0.092330 
1132.214992  	0.088286 
1134.143808  	0.084638 
1136.072624  	0.081351 
1138.001440  	0.078253 
1139.930256  	0.075301 
1141.859072  	0.072628 
1143.787888  	0.069852 
1145.716704  	0.067503 
1147.645520  	0.065600 
1149.574336  	0.064069 
1151.503152  	0.062843 
1153.431968  	0.062502 
1155.360784  	0.062548 
1157.289600  	0.063195 
1159.218416  	0.064196 
1161.147232  	0.065828 
1163.076048  	0.067564 
1165.004864  	0.069526 
1166.933680  	0.071460 
1168.862496  	0.073940 
1170.791312  	0.076790 
1172.720128  	0.079551 
1174.648944  	0.082129 
1176.577760  	0.084935 
1178.506576  	0.087853 
1180.435392  	0.090761 
1182.364208  	0.093532 
1184.293024  	0.096640 
1186.221840  	0.099939 
1188.150656  	0.103574 
1190.079472  	0.107819 
1192.008288  	0.113104 
1193.937104  	0.119387 
1195.865920  	0.126655 
1197.794736  	0.134250 
1199.723552  	0.142397 
1201.652368  	0.151015 
1203.581184  	0.159832 
1205.510000  	0.168452 
1207.438816  	0.176903 
1209.367632  	0.185030 
1211.296448  	0.192386 
1213.225264  	0.198923 
1215.154080  	0.203964 
1217.082896  	0.207788 
1219.011712  	0.210111 
1220.940528  	0.211912 
1222.869344  	0.213417 
1224.798160  	0.214159 
1226.726976  	0.213959 
1228.655792  	0.213430 
1230.584608  	0.212294 
1232.513424  	0.210705 
1234.442240  	0.208262 
1236.371056  	0.204897 
1238.299872  	0.200246 
1240.228688  	0.192631 
1242.157504  	0.185092 
1244.086320  	0.179264 
1246.015136  	0.171371 
1247.943952  	0.162284 
1249.872768  	0.153550 
1251.801584  	0.146305 
1253.730400  	0.139007 
1255.659216  	0.131906 
1257.588032  	0.125087 
1259.516848  	0.118971 
1261.445664  	0.113375 
1263.374480  	0.108383 
1265.303296  	0.104114 
1267.232112  	0.100789 
1269.160928  	0.098389 
1271.089744  	0.096946 
1273.018560  	0.096188 
1274.947376  	0.095971 
1276.876192  	0.095834 
1278.805008  	0.095274 
1280.733824  	0.093822 
1282.662640  	0.091075 
1284.591456  	0.087663 
1286.520272  	0.084336 
1288.449088  	0.081733 
1290.377904  	0.079752 
1292.306720  	0.078440 
1294.235536  	0.076794 
1296.164352  	0.074190 
1298.093168  	0.070774 
1300.021984  	0.067177 
1301.950800  	0.063655 
1303.879616  	0.060545 
1305.808432  	0.057827 
1307.737248  	0.055547 
1309.666064  	0.053415 
1311.594880  	0.052266 
1313.523696  	0.051593 
1315.452512  	0.050955 
1317.381328  	0.050990 
1319.310144  	0.051507 
1321.238960  	0.051934 
1323.167776  	0.052582 
1325.096592  	0.053336 
1327.025408  	0.053864 
1328.954224  	0.053748 
1330.883040  	0.053216 
1332.811856  	0.052160 
1334.740672  	0.051380 
1336.669488  	0.051196 
1338.598304  	0.051625 
1340.527120  	0.050816 
1342.455936  	0.048636 
1344.384752  	0.047714 
1346.313568  	0.047920 
1348.242384  	0.048876 
1350.171200  	0.050499 
1352.100016  	0.052438 
1354.028832  	0.054562 
1355.957648  	0.056808 
1357.886464  	0.058842 
1359.815280  	0.061000 
1361.744096  	0.063897 
1363.672912  	0.065726 
1365.601728  	0.065434 
1367.530544  	0.065767 
1369.459360  	0.065914 
1371.388176  	0.064798 
1373.316992  	0.063679 
1375.245808  	0.061268 
1377.174624  	0.057807 
1379.103440  	0.054652 
1381.032256  	0.051597 
1382.961072  	0.049374 
1384.889888  	0.048516 
1386.818704  	0.049060 
1388.747520  	0.047945 
1390.676336  	0.044411 
1392.605152  	0.039620 
1394.533968  	0.038919 
1396.462784  	0.043411 
1398.391600  	0.044789 
1400.320416  	0.044144 
1402.249232  	0.042806 
1404.178048  	0.043719 
1406.106864  	0.045033 
1408.035680  	0.046587 
1409.964496  	0.049478 
1411.893312  	0.053173 
1413.822128  	0.056523 
1415.750944  	0.060479 
1417.679760  	0.063923 
1419.608576  	0.065749 
1421.537392  	0.064718 
1423.466208  	0.064179 
1425.395024  	0.062614 
1427.323840  	0.060147 
1429.252656  	0.058634 
1431.181472  	0.057419 
1433.110288  	0.056384 
1435.039104  	0.056575 
1436.967920  	0.058313 
1438.896736  	0.058112 
1440.825552  	0.057764 
1442.754368  	0.058269 
1444.683184  	0.058366 
1446.612000  	0.058812 
1448.540816  	0.058920 
1450.469632  	0.058512 
1452.398448  	0.058846 
1454.327264  	0.059588 
1456.256080  	0.061911 
1458.184896  	0.064019 
1460.113712  	0.062367 
1462.042528  	0.061251 
1463.971344  	0.061799 
1465.900160  	0.064339 
1467.828976  	0.066191 
1469.757792  	0.068622 
1471.686608  	0.073679 
1473.615424  	0.081373 
1475.544240  	0.085514 
1477.473056  	0.088670 
1479.401872  	0.089991 
1481.330688  	0.091782 
1483.259504  	0.092310 
1485.188320  	0.092134 
1487.117136  	0.091556 
1489.045952  	0.090986 
1490.974768  	0.087424 
1492.903584  	0.081986 
1494.832400  	0.077603 
1496.761216  	0.073968 
1498.690032  	0.069595 
1500.618848  	0.065634 
1502.547664  	0.061527 
1504.476480  	0.057930 
1506.405296  	0.058801 
1508.334112  	0.060298 
1510.262928  	0.056322 
1512.191744  	0.053267 
1514.120560  	0.051668 
1516.049376  	0.052501 
1517.978192  	0.053300 
1519.907008  	0.053695 
1521.835824  	0.057555 
1523.764640  	0.060166 
1525.693456  	0.063198 
1527.622272  	0.065691 
1529.551088  	0.065906 
1531.479904  	0.065782 
1533.408720  	0.065815 
1535.337536  	0.063550 
1537.266352  	0.059690 
1539.195168  	0.056658 
1541.123984  	0.055527 
1543.052800  	0.054786 
1544.981616  	0.053146 
1546.910432  	0.050173 
1548.839248  	0.049296 
1550.768064  	0.049999 
1552.696880  	0.048913 
1554.625696  	0.050016 
1556.554512  	0.049590 
1558.483328  	0.052621 
1560.412144  	0.059214 
1562.340960  	0.059824 
1564.269776  	0.062046 
1566.198592  	0.066755 
1568.127408  	0.070651 
1570.056224  	0.077996 
1571.985040  	0.082895 
1573.913856  	0.085328 
1575.842672  	0.088332 
1577.771488  	0.091659 
1579.700304  	0.090875 
1581.629120  	0.090281 
1583.557936  	0.090083 
1585.486752  	0.091500 
1587.415568  	0.094279 
1589.344384  	0.099222 
1591.273200  	0.105203 
1593.202016  	0.112401 
1595.130832  	0.119625 
1597.059648  	0.126640 
1598.988464  	0.132119 
1600.917280  	0.136992 
1602.846096  	0.139868 
1604.774912  	0.141420 
1606.703728  	0.141226 
1608.632544  	0.140787 
1610.561360  	0.139115 
1612.490176  	0.137999 
1614.418992  	0.136739 
1616.347808  	0.138157 
1618.276624  	0.141647 
1620.205440  	0.145228 
1622.134256  	0.149642 
1624.063072  	0.158082 
1625.991888  	0.165075 
1627.920704  	0.173967 
1629.849520  	0.183658 
1631.778336  	0.192256 
1633.707152  	0.199506 
1635.635968  	0.210529 
1637.564784  	0.220357 
1639.493600  	0.225547 
1641.422416  	0.229807 
1643.351232  	0.233045 
1645.280048  	0.234723 
1647.208864  	0.237572 
1649.137680  	0.237065 
1651.066496  	0.234640 
1652.995312  	0.232644 
1654.924128  	0.232289 
1656.852944  	0.228547 
1658.781760  	0.224936 
1660.710576  	0.221625 
1662.639392  	0.218717 
1664.568208  	0.215367 
1666.497024  	0.212277 
1668.425840  	0.209367 
1670.354656  	0.206659 
1672.283472  	0.203716 
1674.212288  	0.201358 
1676.141104  	0.200147 
1678.069920  	0.199127 
1679.998736  	0.198969 
1681.927552  	0.198215 
1683.856368  	0.197882 
1685.785184  	0.198534 
1687.714000  	0.197094 
1689.642816  	0.195372 
1691.571632  	0.192423 
1693.500448  	0.189281 
1695.429264  	0.186062 
1697.358080  	0.182688 
1699.286896  	0.178263 
1701.215712  	0.173220 
1703.144528  	0.167859 
1705.073344  	0.162273 
1707.002160  	0.155788 
1708.930976  	0.149199 
1710.859792  	0.142148 
1712.788608  	0.134807 
1714.717424  	0.127730 
1716.646240  	0.119672 
1718.575056  	0.110314 
1720.503872  	0.100600 
1722.432688  	0.092772 
1724.361504  	0.084464 
1726.290320  	0.076836 
1728.219136  	0.070273 
1730.147952  	0.064908 
1732.076768  	0.059053 
1734.005584  	0.054377 
1735.934400  	0.048179 
1737.863216  	0.043431 
1739.792032  	0.039160 
1741.720848  	0.036241 
1743.649664  	0.033727 
1745.578480  	0.030734 
1747.507296  	0.028316 
1749.436112  	0.027411 
1751.364928  	0.026186 
1753.293744  	0.023777 
1755.222560  	0.021519 
1757.151376  	0.021420 
1759.080192  	0.019804 
1761.009008  	0.019180 
1762.937824  	0.018790 
1764.866640  	0.017630 
1766.795456  	0.017066 
1768.724272  	0.017501 
1770.653088  	0.015848 
1772.581904  	0.016440 
1774.510720  	0.016559 
1776.439536  	0.015998 
1778.368352  	0.015247 
1780.297168  	0.015691 
1782.225984  	0.015163 
1784.154800  	0.014845 
1786.083616  	0.014769 
1788.012432  	0.014133 
1789.941248  	0.013825 
1791.870064  	0.014799 
1793.798880  	0.014820 
1795.727696  	0.014466 
1797.656512  	0.013528 
1799.585328  	0.013415 
1801.514144  	0.013935 
1803.442960  	0.013274 
1805.371776  	0.012312 
1807.300592  	0.012379 
1809.229408  	0.012151 
1811.158224  	0.012457 
1813.087040  	0.012003 
1815.015856  	0.011358 
1816.944672  	0.011378 
1818.873488  	0.011633 
1820.802304  	0.011451 
1822.731120  	0.011526 
1824.659936  	0.011921 
1826.588752  	0.011990 
1828.517568  	0.011355 
1830.446384  	0.012600 
1832.375200  	0.011923 
1834.304016  	0.011243 
1836.232832  	0.011168 
1838.161648  	0.011620 
1840.090464  	0.011160 
1842.019280  	0.010830 
1843.948096  	0.011308 
1845.876912  	0.012208 
1847.805728  	0.011723 
1849.734544  	0.011341 
1851.663360  	0.010685 
1853.592176  	0.010876 
1855.520992  	0.010645 
1857.449808  	0.011114 
1859.378624  	0.011129 
1861.307440  	0.011159 
1863.236256  	0.010746 
1865.165072  	0.010758 
1867.093888  	0.011108 
1869.022704  	0.012506 
1870.951520  	0.011821 
1872.880336  	0.010914 
1874.809152  	0.010370 
1876.737968  	0.010328 
1878.666784  	0.009996 
1880.595600  	0.010161 
1882.524416  	0.010188 
1884.453232  	0.010315 
1886.382048  	0.009890 
1888.310864  	0.010470 
1890.239680  	0.011248 
1892.168496  	0.011013 
1894.097312  	0.010240 
1896.026128  	0.010382 
1897.954944  	0.009940 
1899.883760  	0.010113 
1901.812576  	0.010095 
1903.741392  	0.010304 
1905.670208  	0.010021 
1907.599024  	0.009940 
1909.527840  	0.009884 
1911.456656  	0.010137 
1913.385472  	0.009940 
1915.314288  	0.010249 
1917.243104  	0.010209 
1919.171920  	0.010161 
1921.100736  	0.009928 
1923.029552  	0.011065 
1924.958368  	0.009987 
1926.887184  	0.009809 
1928.816000  	0.009308 
1930.744816  	0.008934 
1932.673632  	0.008420 
1934.602448  	0.008852 
1936.531264  	0.009328 
1938.460080  	0.009611 
1940.388896  	0.009495 
1942.317712  	0.010104 
1944.246528  	0.009228 
1946.175344  	0.009465 
1948.104160  	0.009009 
1950.032976  	0.009108 
1951.961792  	0.009261 
1953.890608  	0.009626 
1955.819424  	0.008241 
1957.748240  	0.007827 
1959.677056  	0.008389 
1961.605872  	0.008979 
1963.534688  	0.008481 
1965.463504  	0.010017 
1967.392320  	0.009677 
1969.321136  	0.008783 
1971.249952  	0.008831 
1973.178768  	0.009722 
1975.107584  	0.008032 
1977.036400  	0.008218 
1978.965216  	0.010216 
1980.894032  	0.011426 
1982.822848  	0.009383 
1984.751664  	0.009137 
1986.680480  	0.009131 
1988.609296  	0.010065 
1990.538112  	0.010367 
1992.466928  	0.011465 
1994.395744  	0.010578 
1996.324560  	0.009810 
1998.253376  	0.008994 
2000.182192  	0.009512 
2002.111008  	0.009226 
2004.039824  	0.009146 
2005.968640  	0.008221 
2007.897456  	0.010106 
2009.826272  	0.010393 
2011.755088  	0.009204 
2013.683904  	0.009583 
2015.612720  	0.010694 
2017.541536  	0.010439 
2019.470352  	0.010390 
2021.399168  	0.009413 
2023.327984  	0.010237 
2025.256800  	0.009574 
2027.185616  	0.008961 
2029.114432  	0.008734 
2031.043248  	0.010463 
2032.972064  	0.010999 
2034.900880  	0.012123 
2036.829696  	0.011063 
2038.758512  	0.010552 
2040.687328  	0.010677 
2042.616144  	0.010276 
2044.544960  	0.009572 
2046.473776  	0.010670 
2048.402592  	0.011135 
2050.331408  	0.011702 
2052.260224  	0.011036 
2054.189040  	0.010392 
2056.117856  	0.009704 
2058.046672  	0.009828 
2059.975488  	0.009790 
2061.904304  	0.010487 
2063.833120  	0.011575 
2065.761936  	0.012010 
2067.690752  	0.011044 
2069.619568  	0.010661 
2071.548384  	0.009907 
2073.477200  	0.010417 
2075.406016  	0.011208 
2077.334832  	0.011675 
2079.263648  	0.011341 
2081.192464  	0.011140 
2083.121280  	0.011233 
2085.050096  	0.011461 
2086.978912  	0.011108 
2088.907728  	0.010894 
2090.836544  	0.010666 
2092.765360  	0.010571 
2094.694176  	0.010291 
2096.622992  	0.010402 
2098.551808  	0.010470 
2100.480624  	0.010735 
2102.409440  	0.010905 
2104.338256  	0.011373 
2106.267072  	0.011532 
2108.195888  	0.011744 
2110.124704  	0.011965 
2112.053520  	0.012339 
2113.982336  	0.011954 
2115.911152  	0.012113 
2117.839968  	0.011346 
2119.768784  	0.010632 
2121.697600  	0.010350 
2123.626416  	0.010266 
2125.555232  	0.009764 
2127.484048  	0.010167 
2129.412864  	0.009765 
2131.341680  	0.008471 
2133.270496  	0.009275 
2135.199312  	0.010763 
2137.128128  	0.010630 
2139.056944  	0.010486 
2140.985760  	0.009317 
2142.914576  	0.009856 
2144.843392  	0.009669 
2146.772208  	0.009737 
2148.701024  	0.010447 
2150.629840  	0.011413 
2152.558656  	0.010071 
2154.487472  	0.008831 
2156.416288  	0.008269 
2158.345104  	0.010885 
2160.273920  	0.013654 
2162.202736  	0.013996 
2164.131552  	0.013282 
2166.060368  	0.014816 
2167.989184  	0.013587 
2169.918000  	0.012791 
2171.846816  	0.012104 
2173.775632  	0.011798 
2175.704448  	0.012536 
2177.633264  	0.012880 
2179.562080  	0.012292 
2181.490896  	0.011917 
2183.419712  	0.011955 
2185.348528  	0.012596 
2187.277344  	0.012167 
2189.206160  	0.012034 
2191.134976  	0.012257 
2193.063792  	0.013880 
2194.992608  	0.014209 
2196.921424  	0.013481 
2198.850240  	0.013241 
2200.779056  	0.012639 
2202.707872  	0.012768 
2204.636688  	0.012899 
2206.565504  	0.012273 
2208.494320  	0.012749 
2210.423136  	0.011989 
2212.351952  	0.012331 
2214.280768  	0.012536 
2216.209584  	0.012473 
2218.138400  	0.012366 
2220.067216  	0.012187 
2221.996032  	0.012197 
2223.924848  	0.012096 
2225.853664  	0.012062 
2227.782480  	0.012206 
2229.711296  	0.012473 
2231.640112  	0.012726 
2233.568928  	0.012167 
2235.497744  	0.011994 
2237.426560  	0.011522 
2239.355376  	0.011663 
2241.284192  	0.011767 
2243.213008  	0.012088 
2245.141824  	0.012030 
2247.070640  	0.011453 
2248.999456  	0.010735 
2250.928272  	0.011143 
2252.857088  	0.011466 
2254.785904  	0.011366 
2256.714720  	0.011603 
2258.643536  	0.011836 
2260.572352  	0.011502 
2262.501168  	0.011529 
2264.429984  	0.011726 
2266.358800  	0.012261 
2268.287616  	0.012273 
2270.216432  	0.011917 
2272.145248  	0.011394 
2274.074064  	0.011689 
2276.002880  	0.011780 
2277.931696  	0.012490 
2279.860512  	0.012889 
2281.789328  	0.012908 
2283.718144  	0.012989 
2285.646960  	0.013474 
2287.575776  	0.013442 
2289.504592  	0.013036 
2291.433408  	0.012596 
2293.362224  	0.012597 
2295.291040  	0.012651 
2297.219856  	0.013082 
2299.148672  	0.013183 
2301.077488  	0.013093 
2303.006304  	0.013046 
2304.935120  	0.012841 
2306.863936  	0.012567 
2308.792752  	0.012440 
2310.721568  	0.012215 
2312.650384  	0.011774 
2314.579200  	0.011215 
2316.508016  	0.010659 
2318.436832  	0.009654 
2320.365648  	0.008733 
2322.294464  	0.008102 
2324.223280  	0.006955 
2326.152096  	0.004922 
2328.080912  	0.003261 
2330.009728  	0.002050 
2331.938544  	0.001183 
2333.867360  	-0.000174 
2335.796176  	-0.001354 
2337.724992  	-0.002137 
2339.653808  	-0.002457 
2341.582624  	-0.002218 
2343.511440  	-0.000217 
2345.440256  	0.002895 
2347.369072  	0.006137 
2349.297888  	0.005741 
2351.226704  	0.002238 
2353.155520  	-0.001252 
2355.084336  	-0.004104 
2357.013152  	-0.006256 
2358.941968  	-0.007004 
2360.870784  	-0.007564 
2362.799600  	-0.006886 
2364.728416  	-0.005378 
2366.657232  	-0.002953 
2368.586048  	-0.000515 
2370.514864  	0.002161 
2372.443680  	0.004970 
2374.372496  	0.007787 
2376.301312  	0.009939 
2378.230128  	0.011746 
2380.158944  	0.012679 
2382.087760  	0.013057 
2384.016576  	0.013191 
2385.945392  	0.013083 
2387.874208  	0.012632 
2389.803024  	0.012359 
2391.731840  	0.012289 
2393.660656  	0.012308 
2395.589472  	0.012325 
2397.518288  	0.012500 
2399.447104  	0.012500 
2401.375920  	0.012421 
2403.304736  	0.012438 
2405.233552  	0.012682 
2407.162368  	0.012879 
2409.091184  	0.012802 
2411.020000  	0.012730 
2412.948816  	0.012924 
2414.877632  	0.012894 
2416.806448  	0.012888 
2418.735264  	0.013035 
2420.664080  	0.013097 
2422.592896  	0.012912 
2424.521712  	0.012960 
2426.450528  	0.013040 
2428.379344  	0.012926 
2430.308160  	0.012966 
2432.236976  	0.013219 
2434.165792  	0.013466 
2436.094608  	0.013798 
2438.023424  	0.014001 
2439.952240  	0.014245 
2441.881056  	0.014060 
2443.809872  	0.013913 
2445.738688  	0.013994 
2447.667504  	0.014177 
2449.596320  	0.014137 
2451.525136  	0.014179 
2453.453952  	0.014361 
2455.382768  	0.014686 
2457.311584  	0.014890 
2459.240400  	0.014792 
2461.169216  	0.014567 
2463.098032  	0.014431 
2465.026848  	0.014441 
2466.955664  	0.014511 
2468.884480  	0.014280 
2470.813296  	0.014221 
2472.742112  	0.014228 
2474.670928  	0.014305 
2476.599744  	0.014557 
2478.528560  	0.014753 
2480.457376  	0.014944 
2482.386192  	0.015063 
2484.315008  	0.015086 
2486.243824  	0.015253 
2488.172640  	0.015162 
2490.101456  	0.015084 
2492.030272  	0.015384 
2493.959088  	0.015448 
2495.887904  	0.015249 
2497.816720  	0.015397 
2499.745536  	0.015583 
2501.674352  	0.015845 
2503.603168  	0.015865 
2505.531984  	0.015921 
2507.460800  	0.015874 
2509.389616  	0.015650 
2511.318432  	0.015420 
2513.247248  	0.015635 
2515.176064  	0.016117 
2517.104880  	0.016359 
2519.033696  	0.016389 
2520.962512  	0.016460 
2522.891328  	0.016625 
2524.820144  	0.016543 
2526.748960  	0.016530 
2528.677776  	0.016841 
2530.606592  	0.016907 
2532.535408  	0.016866 
2534.464224  	0.017051 
2536.393040  	0.017202 
2538.321856  	0.017029 
2540.250672  	0.017122 
2542.179488  	0.017323 
2544.108304  	0.017499 
2546.037120  	0.017428 
2547.965936  	0.017758 
2549.894752  	0.018077 
2551.823568  	0.018004 
2553.752384  	0.017980 
2555.681200  	0.018095 
2557.610016  	0.018108 
2559.538832  	0.018149 
2561.467648  	0.018247 
2563.396464  	0.018507 
2565.325280  	0.018614 
2567.254096  	0.018627 
2569.182912  	0.018638 
2571.111728  	0.018643 
2573.040544  	0.018573 
2574.969360  	0.018720 
2576.898176  	0.019046 
2578.826992  	0.019247 
2580.755808  	0.019045 
2582.684624  	0.018995 
2584.613440  	0.018964 
2586.542256  	0.019192 
2588.471072  	0.019419 
2590.399888  	0.019530 
2592.328704  	0.019563 
2594.257520  	0.019780 
2596.186336  	0.020103 
2598.115152  	0.020246 
2600.043968  	0.020149 
2601.972784  	0.020144 
2603.901600  	0.020245 
2605.830416  	0.020409 
2607.759232  	0.020453 
2609.688048  	0.020594 
2611.616864  	0.020809 
2613.545680  	0.020975 
2615.474496  	0.021022 
2617.403312  	0.021100 
2619.332128  	0.021380 
2621.260944  	0.021539 
2623.189760  	0.021480 
2625.118576  	0.021670 
2627.047392  	0.021839 
2628.976208  	0.022107 
2630.905024  	0.022290 
2632.833840  	0.022453 
2634.762656  	0.022597 
2636.691472  	0.022721 
2638.620288  	0.022916 
2640.549104  	0.023060 
2642.477920  	0.023114 
2644.406736  	0.023204 
2646.335552  	0.023542 
2648.264368  	0.023739 
2650.193184  	0.023758 
2652.122000  	0.024057 
2654.050816  	0.024313 
2655.979632  	0.024239 
2657.908448  	0.024251 
2659.837264  	0.024414 
2661.766080  	0.024523 
2663.694896  	0.024606 
2665.623712  	0.024554 
2667.552528  	0.024505 
2669.481344  	0.024638 
2671.410160  	0.024935 
2673.338976  	0.025208 
2675.267792  	0.025434 
2677.196608  	0.025654 
2679.125424  	0.025847 
2681.054240  	0.025885 
2682.983056  	0.025990 
2684.911872  	0.026201 
2686.840688  	0.026395 
2688.769504  	0.026502 
2690.698320  	0.026624 
2692.627136  	0.026846 
2694.555952  	0.026992 
2696.484768  	0.026984 
2698.413584  	0.027078 
2700.342400  	0.027230 
2702.271216  	0.027412 
2704.200032  	0.027716 
2706.128848  	0.027969 
2708.057664  	0.028021 
2709.986480  	0.028041 
2711.915296  	0.028135 
2713.844112  	0.028293 
2715.772928  	0.028485 
2717.701744  	0.028625 
2719.630560  	0.028652 
2721.559376  	0.028792 
2723.488192  	0.028993 
2725.417008  	0.029274 
2727.345824  	0.029471 
2729.274640  	0.029519 
2731.203456  	0.029561 
2733.132272  	0.029673 
2735.061088  	0.029918 
2736.989904  	0.030100 
2738.918720  	0.030152 
2740.847536  	0.030084 
2742.776352  	0.030146 
2744.705168  	0.030375 
2746.633984  	0.030549 
2748.562800  	0.030682 
2750.491616  	0.030750 
2752.420432  	0.030804 
2754.349248  	0.030861 
2756.278064  	0.030959 
2758.206880  	0.031006 
2760.135696  	0.031104 
2762.064512  	0.031115 
2763.993328  	0.031194 
2765.922144  	0.031267 
2767.850960  	0.031239 
2769.779776  	0.031245 
2771.708592  	0.031391 
2773.637408  	0.031389 
2775.566224  	0.031429 
2777.495040  	0.031431 
2779.423856  	0.031431 
2781.352672  	0.031648 
2783.281488  	0.031902 
2785.210304  	0.031843 
2787.139120  	0.031857 
2789.067936  	0.032032 
2790.996752  	0.032151 
2792.925568  	0.032290 
2794.854384  	0.032417 
2796.783200  	0.032465 
2798.712016  	0.032410 
2800.640832  	0.032401 
2802.569648  	0.032650 
2804.498464  	0.032795 
2806.427280  	0.032901 
2808.356096  	0.033120 
2810.284912  	0.033345 
2812.213728  	0.033340 
2814.142544  	0.033325 
2816.071360  	0.033457 
2818.000176  	0.033449 
2819.928992  	0.033349 
2821.857808  	0.033322 
2823.786624  	0.033252 
2825.715440  	0.033166 
2827.644256  	0.033050 
2829.573072  	0.032928 
2831.501888  	0.032686 
2833.430704  	0.032503 
2835.359520  	0.032338 
2837.288336  	0.031976 
2839.217152  	0.031626 
2841.145968  	0.031425 
2843.074784  	0.031264 
2845.003600  	0.031303 
2846.932416  	0.031653 
2848.861232  	0.031820 
2850.790048  	0.031435 
2852.718864  	0.030648 
2854.647680  	0.029710 
2856.576496  	0.028841 
2858.505312  	0.028004 
2860.434128  	0.027062 
2862.362944  	0.025990 
2864.291760  	0.025003 
2866.220576  	0.024126 
2868.149392  	0.023782 
2870.078208  	0.023879 
2872.007024  	0.023993 
2873.935840  	0.024068 
2875.864656  	0.024119 
2877.793472  	0.023946 
2879.722288  	0.023435 
2881.651104  	0.022690 
2883.579920  	0.022193 
2885.508736  	0.022290 
2887.437552  	0.022689 
2889.366368  	0.022755 
2891.295184  	0.022415 
2893.224000  	0.022186 
2895.152816  	0.022271 
2897.081632  	0.021698 
2899.010448  	0.019370 
2900.939264  	0.017563 
2902.868080  	0.019292 
2904.796896  	0.020974 
2906.725712  	0.021714 
2908.654528  	0.022420 
2910.583344  	0.023185 
2912.512160  	0.024824 
2914.440976  	0.027022 
2916.369792  	0.028539 
2918.298608  	0.029393 
2920.227424  	0.029844 
2922.156240  	0.030457 
2924.085056  	0.031332 
2926.013872  	0.032244 
2927.942688  	0.033168 
2929.871504  	0.034112 
2931.800320  	0.034790 
2933.729136  	0.035209 
2935.657952  	0.035375 
2937.586768  	0.035604 
2939.515584  	0.035702 
2941.444400  	0.035683 
2943.373216  	0.035534 
2945.302032  	0.035321 
2947.230848  	0.035199 
2949.159664  	0.034790 
2951.088480  	0.033926 
2953.017296  	0.033258 
2954.946112  	0.032438 
2956.874928  	0.031381 
2958.803744  	0.030524 
2960.732560  	0.030052 
2962.661376  	0.029547 
2964.590192  	0.028655 
2966.519008  	0.027647 
2968.447824  	0.026975 
2970.376640  	0.026496 
2972.305456  	0.026084 
2974.234272  	0.026307 
2976.163088  	0.026280 
2978.091904  	0.025712 
2980.020720  	0.024841 
2981.949536  	0.024039 
2983.878352  	0.022527 
2985.807168  	0.020429 
2987.735984  	0.018875 
2989.664800  	0.019200 
2991.593616  	0.023072 
2993.522432  	0.025166 
2995.451248  	0.025552 
2997.380064  	0.026535 
2999.308880  	0.027939 
3001.237696  	0.029637 
3003.166512  	0.031424 
3005.095328  	0.033305 
3007.024144  	0.035209 
3008.952960  	0.037079 
3010.881776  	0.039005 
3012.810592  	0.040791 
3014.739408  	0.042423 
3016.668224  	0.043958 
3018.597040  	0.045356 
3020.525856  	0.046693 
3022.454672  	0.048112 
3024.383488  	0.049477 
3026.312304  	0.050854 
3028.241120  	0.052060 
3030.169936  	0.053073 
3032.098752  	0.054306 
3034.027568  	0.055172 
3035.956384  	0.055932 
3037.885200  	0.056839 
3039.814016  	0.057722 
3041.742832  	0.058410 
3043.671648  	0.059134 
3045.600464  	0.059855 
3047.529280  	0.060451 
3049.458096  	0.061077 
3051.386912  	0.061489 
3053.315728  	0.061968 
3055.244544  	0.062756 
3057.173360  	0.063546 
3059.102176  	0.064133 
3061.030992  	0.064657 
3062.959808  	0.065225 
3064.888624  	0.065949 
3066.817440  	0.066824 
3068.746256  	0.067496 
3070.675072  	0.067927 
3072.603888  	0.068592 
3074.532704  	0.069286 
3076.461520  	0.069875 
3078.390336  	0.070526 
3080.319152  	0.071232 
3082.247968  	0.072022 
3084.176784  	0.072771 
3086.105600  	0.073400 
3088.034416  	0.074003 
3089.963232  	0.074673 
3091.892048  	0.075291 
3093.820864  	0.075931 
3095.749680  	0.076683 
3097.678496  	0.077191 
3099.607312  	0.077761 
3101.536128  	0.078471 
3103.464944  	0.079243 
3105.393760  	0.079940 
3107.322576  	0.080592 
3109.251392  	0.081249 
3111.180208  	0.081825 
3113.109024  	0.082402 
3115.037840  	0.082962 
3116.966656  	0.083514 
3118.895472  	0.083895 
3120.824288  	0.084376 
3122.753104  	0.085206 
3124.681920  	0.085800 
3126.610736  	0.086142 
3128.539552  	0.086550 
3130.468368  	0.086918 
3132.397184  	0.087323 
3134.326000  	0.087727 
3136.254816  	0.088152 
3138.183632  	0.088654 
3140.112448  	0.089226 
3142.041264  	0.089764 
3143.970080  	0.090316 
3145.898896  	0.090770 
3147.827712  	0.091199 
3149.756528  	0.091815 
3151.685344  	0.092427 
3153.614160  	0.092964 
3155.542976  	0.093425 
3157.471792  	0.093886 
3159.400608  	0.094789 
3161.329424  	0.095484 
3163.258240  	0.095952 
3165.187056  	0.096441 
3167.115872  	0.096965 
3169.044688  	0.097414 
3170.973504  	0.097717 
3172.902320  	0.097984 
3174.831136  	0.098328 
3176.759952  	0.098882 
3178.688768  	0.099554 
3180.617584  	0.099769 
3182.546400  	0.099612 
3184.475216  	0.100016 
3186.404032  	0.100369 
3188.332848  	0.100517 
3190.261664  	0.100842 
3192.190480  	0.101056 
3194.119296  	0.100994 
3196.048112  	0.101041 
3197.976928  	0.101292 
3199.905744  	0.101384 
3201.834560  	0.101363 
3203.763376  	0.101360 
3205.692192  	0.101359 
3207.621008  	0.101185 
3209.549824  	0.101131 
3211.478640  	0.100992 
3213.407456  	0.100713 
3215.336272  	0.100694 
3217.265088  	0.100579 
3219.193904  	0.100389 
3221.122720  	0.100063 
3223.051536  	0.099757 
3224.980352  	0.099629 
3226.909168  	0.099333 
3228.837984  	0.099039 
3230.766800  	0.099087 
3232.695616  	0.099226 
3234.624432  	0.099188 
3236.553248  	0.099176 
3238.482064  	0.099181 
3240.410880  	0.099030 
3242.339696  	0.099038 
3244.268512  	0.099177 
3246.197328  	0.099274 
3248.126144  	0.099276 
3250.054960  	0.099384 
3251.983776  	0.099408 
3253.912592  	0.099551 
3255.841408  	0.099737 
3257.770224  	0.100151 
3259.699040  	0.100601 
3261.627856  	0.100608 
3263.556672  	0.100512 
3265.485488  	0.100722 
3267.414304  	0.101050 
3269.343120  	0.101289 
3271.271936  	0.101654 
3273.200752  	0.102122 
3275.129568  	0.102391 
3277.058384  	0.102350 
3278.987200  	0.102498 
3280.916016  	0.102690 
3282.844832  	0.102874 
3284.773648  	0.103194 
3286.702464  	0.103458 
3288.631280  	0.103682 
3290.560096  	0.103987 
3292.488912  	0.104363 
3294.417728  	0.104568 
3296.346544  	0.104742 
3298.275360  	0.104950 
3300.204176  	0.105402 
3302.132992  	0.105758 
3304.061808  	0.106210 
3305.990624  	0.106662 
3307.919440  	0.106968 
3309.848256  	0.107154 
3311.777072  	0.107280 
3313.705888  	0.107597 
3315.634704  	0.108052 
3317.563520  	0.108440 
3319.492336  	0.108728 
3321.421152  	0.108931 
3323.349968  	0.109150 
3325.278784  	0.109550 
3327.207600  	0.109729 
3329.136416  	0.109602 
3331.065232  	0.109337 
3332.994048  	0.109370 
3334.922864  	0.109448 
3336.851680  	0.109404 
3338.780496  	0.109266 
3340.709312  	0.108906 
3342.638128  	0.108661 
3344.566944  	0.108515 
3346.495760  	0.108217 
3348.424576  	0.107804 
3350.353392  	0.107475 
3352.282208  	0.107057 
3354.211024  	0.106844 
3356.139840  	0.106694 
3358.068656  	0.106157 
3359.997472  	0.105750 
3361.926288  	0.105485 
3363.855104  	0.104917 
3365.783920  	0.104381 
3367.712736  	0.104108 
3369.641552  	0.103502 
3371.570368  	0.102678 
3373.499184  	0.102219 
3375.428000  	0.101773 
3377.356816  	0.101221 
3379.285632  	0.100816 
3381.214448  	0.100364 
3383.143264  	0.099751 
3385.072080  	0.099414 
3387.000896  	0.098850 
3388.929712  	0.098209 
3390.858528  	0.097815 
3392.787344  	0.097471 
3394.716160  	0.096733 
3396.644976  	0.096218 
3398.573792  	0.095760 
3400.502608  	0.095052 
3402.431424  	0.094433 
3404.360240  	0.093972 
3406.289056  	0.093428 
3408.217872  	0.092663 
3410.146688  	0.091925 
3412.075504  	0.091754 
3414.004320  	0.091405 
3415.933136  	0.090629 
3417.861952  	0.090043 
3419.790768  	0.089809 
3421.719584  	0.089233 
3423.648400  	0.088322 
3425.577216  	0.087641 
3427.506032  	0.087196 
3429.434848  	0.086520 
3431.363664  	0.085857 
3433.292480  	0.085216 
3435.221296  	0.084523 
3437.150112  	0.083883 
3439.078928  	0.083443 
3441.007744  	0.083015 
3442.936560  	0.082695 
3444.865376  	0.081732 
3446.794192  	0.081021 
3448.723008  	0.080469 
3450.651824  	0.079274 
3452.580640  	0.078338 
3454.509456  	0.077734 
3456.438272  	0.077175 
3458.367088  	0.076575 
3460.295904  	0.075954 
3462.224720  	0.075214 
3464.153536  	0.074179 
3466.082352  	0.073447 
3468.011168  	0.072874 
3469.939984  	0.071967 
3471.868800  	0.071072 
3473.797616  	0.070414 
3475.726432  	0.069679 
3477.655248  	0.068750 
3479.584064  	0.068104 
3481.512880  	0.067599 
3483.441696  	0.066556 
3485.370512  	0.065218 
3487.299328  	0.064599 
3489.228144  	0.064065 
3491.156960  	0.062905 
3493.085776  	0.062074 
3495.014592  	0.061807 
3496.943408  	0.061278 
3498.872224  	0.060169 
3500.801040  	0.059688 
3502.729856  	0.059712 
3504.658672  	0.058808 
3506.587488  	0.057256 
3508.516304  	0.056833 
3510.445120  	0.056630 
3512.373936  	0.055629 
3514.302752  	0.054815 
3516.231568  	0.054141 
3518.160384  	0.053499 
3520.089200  	0.052946 
3522.018016  	0.052697 
3523.946832  	0.052956 
3525.875648  	0.052280 
3527.804464  	0.051479 
3529.733280  	0.050675 
3531.662096  	0.049569 
3533.590912  	0.048573 
3535.519728  	0.048354 
3537.448544  	0.048071 
3539.377360  	0.046989 
3541.306176  	0.046078 
3543.234992  	0.045856 
3545.163808  	0.046653 
3547.092624  	0.046387 
3549.021440  	0.044403 
3550.950256  	0.043197 
3552.879072  	0.043597 
3554.807888  	0.042894 
3556.736704  	0.041616 
3558.665520  	0.041202 
3560.594336  	0.041079 
3562.523152  	0.040224 
3564.451968  	0.039792 
3566.380784  	0.041219 
3568.309600  	0.041573 
3570.238416  	0.038737 
3572.167232  	0.036618 
3574.096048  	0.035774 
3576.024864  	0.035153 
3577.953680  	0.034532 
3579.882496  	0.034138 
3581.811312  	0.033359 
3583.740128  	0.032250 
3585.668944  	0.032152 
3587.597760  	0.034014 
3589.526576  	0.032980 
3591.455392  	0.029844 
3593.384208  	0.029128 
3595.313024  	0.029246 
3597.241840  	0.028251 
3599.170656  	0.026867 
3601.099472  	0.026208 
3603.028288  	0.025333 
3604.957104  	0.023925 
3606.885920  	0.023570 
3608.814736  	0.024596 
3610.743552  	0.023342 
3612.672368  	0.022264 
3614.601184  	0.021902 
3616.530000  	0.019798 
3618.458816  	0.019571 
3620.387632  	0.020057 
3622.316448  	0.017691 
3624.245264  	0.015340 
3626.174080  	0.013424 
3628.102896  	0.013831 
3630.031712  	0.017317 
3631.960528  	0.014311 
3633.889344  	0.012099 
3635.818160  	0.010710 
3637.746976  	0.009254 
3639.675792  	0.008593 
3641.604608  	0.007820 
3643.533424  	0.006444 
3645.462240  	0.004115 
3647.391056  	0.003905 
3649.319872  	0.005301 
3651.248688  	0.006331 
3653.177504  	0.002836 
3655.106320  	-0.000183 
3657.035136  	0.000375 
3658.963952  	-0.001152 
3660.892768  	-0.002957 
3662.821584  	-0.003804 
3664.750400  	-0.004229 
3666.679216  	-0.005626 
3668.608032  	-0.006370 
3670.536848  	-0.003478 
3672.465664  	-0.004410 
3674.394480  	-0.007258 
3676.323296  	-0.003071 
3678.252112  	-0.002257 
3680.180928  	-0.002926 
3682.109744  	-0.004229 
3684.038560  	-0.005675 
3685.967376  	-0.007438 
3687.896192  	-0.007558 
3689.825008  	-0.004552 
3691.753824  	-0.003322 
3693.682640  	-0.003851 
3695.611456  	-0.004530 
3697.540272  	-0.004058 
3699.469088  	-0.004111 
3701.397904  	-0.002324 
3703.326720  	-0.000643 
3705.255536  	-0.001520 
3707.184352  	-0.002629 
3709.113168  	-0.002463 
3711.041984  	-0.000130 
3712.970800  	0.002610 
3714.899616  	0.001956 
3716.828432  	0.000217 
3718.757248  	-0.000241 
3720.686064  	-0.000232 
3722.614880  	0.000874 
3724.543696  	0.001537 
3726.472512  	0.002190 
3728.401328  	0.000956 
3730.330144  	-0.002071 
3732.258960  	-0.001756 
3734.187776  	0.001494 
3736.116592  	0.005453 
3738.045408  	0.003847 
3739.974224  	0.001185 
3741.903040  	-0.000942 
3743.831856  	0.000127 
3745.760672  	0.004677 
3747.689488  	0.000248 
3749.618304  	-0.000789 
3751.547120  	0.002323 
3753.475936  	0.003755 
3755.404752  	0.001410 
3757.333568  	0.000411 
3759.262384  	0.001290 
3761.191200  	0.002202 
3763.120016  	0.000609 
3765.048832  	0.000662 
3766.977648  	0.001061 
3768.906464  	0.000350 
3770.835280  	0.002069 
3772.764096  	0.001640 
3774.692912  	0.000546 
3776.621728  	-0.000288 
3778.550544  	-0.000135 
3780.479360  	0.001462 
3782.408176  	0.000743 
3784.336992  	0.000479 
3786.265808  	0.000962 
3788.194624  	0.000655 
3790.123440  	0.000246 
3792.052256  	-0.000095 
3793.981072  	-0.000734 
3795.909888  	-0.000109 
3797.838704  	0.000661 
3799.767520  	-0.001493 
3801.696336  	0.001158 
3803.625152  	0.002078 
3805.553968  	-0.000734 
3807.482784  	0.001484 
3809.411600  	0.001879 
3811.340416  	0.000516 
3813.269232  	-0.001045 
3815.198048  	-0.001315 
3817.126864  	0.001348 
3819.055680  	-0.000917 
3820.984496  	0.000538 
3822.913312  	0.003272 
3824.842128  	0.000731 
3826.770944  	0.000697 
3828.699760  	0.000461 
3830.628576  	-0.000648 
3832.557392  	-0.000132 
3834.486208  	-0.000686 
3836.415024  	-0.001123 
3838.343840  	0.001057 
3840.272656  	0.002406 
3842.201472  	0.001683 
3844.130288  	0.001450 
3846.059104  	0.000877 
3847.987920  	-0.000511 
3849.916736  	-0.002073 
3851.845552  	-0.003086 
3853.774368  	0.003071 
3855.703184  	0.004941 
3857.632000  	0.002267 
3859.560816  	0.000196 
3861.489632  	-0.000203 
3863.418448  	0.000527 
3865.347264  	0.001899 
3867.276080  	0.000263 
3869.204896  	0.000411 
3871.133712  	0.003724 
3873.062528  	0.001768 
3874.991344  	0.002205 
3876.920160  	0.000514 
3878.848976  	-0.000562 
3880.777792  	0.002207 
3882.706608  	0.001999 
3884.635424  	0.000863 
3886.564240  	0.002939 
3888.493056  	0.000634 
3890.421872  	-0.000013 
3892.350688  	0.002470 
3894.279504  	0.001750 
3896.208320  	-0.000103 
3898.137136  	-0.000087 
3900.065952  	0.001652 
3901.994768  	0.002459 
3903.923584  	0.003630 
3905.852400  	0.003793 
3907.781216  	0.001741 
3909.710032  	0.000353 
3911.638848  	0.000212 
3913.567664  	0.000183 
3915.496480  	0.000561 
3917.425296  	0.002361 
3919.354112  	0.002404 
3921.282928  	0.001710 
3923.211744  	0.001296 
3925.140560  	0.002041 
3927.069376  	0.001229 
3928.998192  	0.000616 
3930.927008  	0.001788 
3932.855824  	0.003089 
3934.784640  	0.002023 
3936.713456  	0.000991 
3938.642272  	0.000899 
3940.571088  	0.000542 
3942.499904  	0.001879 
3944.428720  	0.002439 
3946.357536  	0.001399 
3948.286352  	0.001838 
3950.215168  	0.001831 
3952.143984  	0.001022 
3954.072800  	0.000631 
3956.001616  	0.000685 
3957.930432  	0.000958 
3959.859248  	0.001188 
3961.788064  	0.001333 
3963.716880  	0.001104 
3965.645696  	0.000585 
3967.574512  	0.000658 
3969.503328  	0.000861 
3971.432144  	0.000840 
3973.360960  	0.000738 
3975.289776  	0.000991 
3977.218592  	0.001021 
3979.147408  	0.000929 
3981.076224  	0.000731 
3983.005040  	0.000654 
3984.933856  	0.000599 
3986.862672  	0.000632 
3988.791488  	0.000644 
3990.720304  	0.000858 
3992.649120  	0.000867 
3994.577936  	0.000763 
3996.506752  	0.000714 
3998.435568  	0.000693 
4000.364384  	0.000673 