##TITLE=No Description
##DATA TYPE=INFRARED SPECTRUM
##XUNITS=1/CM
##YUNITS=Abs
399.264912  	0.592225 
401.193728  	0.584334 
403.122544  	0.585677 
405.051360  	0.591527 
406.980176  	0.595957 
408.908992  	0.589433 
410.837808  	0.589697 
412.766624  	0.580272 
414.695440  	0.575551 
416.624256  	0.565107 
418.553072  	0.569359 
420.481888  	0.565025 
422.410704  	0.566556 
424.339520  	0.559308 
426.268336  	0.566426 
428.197152  	0.558503 
430.125968  	0.547070 
432.054784  	0.538531 
433.983600  	0.537481 
435.912416  	0.534371 
437.841232  	0.534413 
439.770048  	0.530319 
441.698864  	0.534544 
443.627680  	0.532649 
445.556496  	0.529716 
447.485312  	0.525246 
449.414128  	0.525362 
451.342944  	0.522604 
453.271760  	0.524877 
455.200576  	0.518992 
457.129392  	0.520653 
459.058208  	0.524021 
460.987024  	0.523637 
462.915840  	0.521737 
464.844656  	0.526782 
466.773472  	0.523228 
468.702288  	0.519581 
470.631104  	0.519110 
472.559920  	0.519093 
474.488736  	0.514106 
476.417552  	0.521182 
478.346368  	0.520059 
480.275184  	0.518726 
482.204000  	0.514034 
484.132816  	0.513610 
486.061632  	0.510616 
487.990448  	0.512361 
489.919264  	0.512868 
491.848080  	0.512180 
493.776896  	0.508399 
495.705712  	0.506384 
497.634528  	0.501864 
499.563344  	0.502857 
501.492160  	0.504181 
503.420976  	0.506491 
505.349792  	0.502897 
507.278608  	0.503592 
509.207424  	0.503919 
511.136240  	0.506890 
513.065056  	0.507683 
514.993872  	0.509381 
516.922688  	0.509012 
518.851504  	0.511126 
520.780320  	0.510660 
522.709136  	0.510461 
524.637952  	0.506733 
526.566768  	0.504113 
528.495584  	0.503408 
530.424400  	0.501301 
532.353216  	0.496088 
534.282032  	0.492574 
536.210848  	0.488204 
538.139664  	0.485003 
540.068480  	0.479181 
541.997296  	0.474188 
543.926112  	0.471115 
545.854928  	0.468158 
547.783744  	0.462663 
549.712560  	0.459684 
551.641376  	0.454806 
553.570192  	0.451776 
555.499008  	0.448821 
557.427824  	0.445374 
559.356640  	0.441259 
561.285456  	0.438723 
563.214272  	0.434242 
565.143088  	0.429943 
567.071904  	0.425926 
569.000720  	0.422800 
570.929536  	0.418596 
572.858352  	0.415912 
574.787168  	0.413340 
576.715984  	0.410797 
578.644800  	0.405711 
580.573616  	0.401807 
582.502432  	0.398285 
584.431248  	0.395736 
586.360064  	0.392484 
588.288880  	0.389929 
590.217696  	0.387647 
592.146512  	0.385661 
594.075328  	0.383246 
596.004144  	0.381510 
597.932960  	0.379526 
599.861776  	0.378622 
601.790592  	0.377871 
603.719408  	0.376430 
605.648224  	0.373825 
607.577040  	0.372570 
609.505856  	0.372090 
611.434672  	0.371640 
613.363488  	0.369248 
615.292304  	0.367297 
617.221120  	0.364821 
619.149936  	0.363343 
621.078752  	0.361621 
623.007568  	0.359874 
624.936384  	0.358246 
626.865200  	0.357273 
628.794016  	0.355342 
630.722832  	0.353669 
632.651648  	0.353319 
634.580464  	0.353801 
636.509280  	0.353552 
638.438096  	0.353214 
640.366912  	0.352224 
642.295728  	0.350874 
644.224544  	0.348269 
646.153360  	0.345114 
648.082176  	0.341737 
650.010992  	0.338668 
651.939808  	0.334744 
653.868624  	0.330932 
655.797440  	0.326980 
657.726256  	0.324061 
659.655072  	0.320474 
661.583888  	0.316543 
663.512704  	0.312882 
665.441520  	0.309890 
667.370336  	0.304430 
669.299152  	0.299411 
671.227968  	0.298701 
673.156784  	0.296645 
675.085600  	0.293783 
677.014416  	0.291080 
678.943232  	0.288902 
680.872048  	0.287267 
682.800864  	0.286122 
684.729680  	0.285314 
686.658496  	0.283399 
688.587312  	0.281332 
690.516128  	0.279360 
692.444944  	0.278625 
694.373760  	0.277822 
696.302576  	0.276439 
698.231392  	0.274264 
700.160208  	0.271630 
702.089024  	0.269121 
704.017840  	0.267481 
705.946656  	0.264749 
707.875472  	0.261740 
709.804288  	0.259499 
711.733104  	0.257868 
713.661920  	0.256325 
715.590736  	0.255564 
717.519552  	0.254956 
719.448368  	0.255230 
721.377184  	0.255924 
723.306000  	0.256645 
725.234816  	0.257031 
727.163632  	0.256135 
729.092448  	0.253409 
731.021264  	0.250510 
732.950080  	0.247715 
734.878896  	0.244976 
736.807712  	0.242567 
738.736528  	0.240891 
740.665344  	0.239012 
742.594160  	0.237173 
744.522976  	0.235532 
746.451792  	0.234151 
748.380608  	0.233103 
750.309424  	0.232412 
752.238240  	0.231532 
754.167056  	0.230680 
756.095872  	0.229863 
758.024688  	0.228873 
759.953504  	0.228207 
761.882320  	0.228531 
763.811136  	0.228926 
765.739952  	0.228697 
767.668768  	0.227489 
769.597584  	0.225926 
771.526400  	0.225501 
773.455216  	0.227236 
775.384032  	0.229987 
777.312848  	0.233846 
779.241664  	0.237772 
781.170480  	0.239019 
783.099296  	0.236630 
785.028112  	0.231315 
786.956928  	0.225131 
788.885744  	0.220061 
790.814560  	0.216385 
792.743376  	0.214248 
794.672192  	0.212784 
796.601008  	0.211717 
798.529824  	0.209647 
800.458640  	0.205849 
802.387456  	0.202337 
804.316272  	0.200623 
806.245088  	0.199883 
808.173904  	0.199543 
810.102720  	0.199417 
812.031536  	0.199479 
813.960352  	0.199529 
815.889168  	0.199560 
817.817984  	0.199418 
819.746800  	0.199155 
821.675616  	0.198609 
823.604432  	0.198060 
825.533248  	0.197069 
827.462064  	0.195779 
829.390880  	0.194598 
831.319696  	0.193526 
833.248512  	0.191938 
835.177328  	0.189783 
837.106144  	0.187061 
839.034960  	0.184079 
840.963776  	0.180807 
842.892592  	0.177640 
844.821408  	0.174626 
846.750224  	0.171757 
848.679040  	0.169126 
850.607856  	0.166753 
852.536672  	0.164783 
854.465488  	0.162678 
856.394304  	0.160463 
858.323120  	0.158089 
860.251936  	0.155438 
862.180752  	0.152513 
864.109568  	0.149602 
866.038384  	0.146893 
867.967200  	0.144753 
869.896016  	0.143054 
871.824832  	0.142192 
873.753648  	0.142251 
875.682464  	0.142859 
877.611280  	0.141976 
879.540096  	0.140870 
881.468912  	0.142701 
883.397728  	0.143626 
885.326544  	0.144204 
887.255360  	0.143665 
889.184176  	0.141745 
891.112992  	0.138622 
893.041808  	0.136889 
894.970624  	0.135416 
896.899440  	0.132639 
898.828256  	0.129407 
900.757072  	0.126663 
902.685888  	0.124636 
904.614704  	0.123944 
906.543520  	0.124738 
908.472336  	0.127060 
910.401152  	0.130275 
912.329968  	0.134129 
914.258784  	0.137989 
916.187600  	0.141242 
918.116416  	0.143537 
920.045232  	0.144793 
921.974048  	0.145014 
923.902864  	0.144594 
925.831680  	0.143732 
927.760496  	0.142934 
929.689312  	0.142342 
931.618128  	0.142438 
933.546944  	0.142831 
935.475760  	0.143090 
937.404576  	0.143335 
939.333392  	0.144138 
941.262208  	0.145462 
943.191024  	0.147838 
945.119840  	0.151913 
947.048656  	0.157122 
948.977472  	0.163461 
950.906288  	0.170849 
952.835104  	0.178864 
954.763920  	0.186586 
956.692736  	0.193673 
958.621552  	0.199522 
960.550368  	0.203289 
962.479184  	0.204689 
964.408000  	0.202931 
966.336816  	0.198345 
968.265632  	0.190946 
970.194448  	0.181998 
972.123264  	0.171804 
974.052080  	0.161013 
975.980896  	0.150539 
977.909712  	0.140989 
979.838528  	0.132797 
981.767344  	0.126048 
983.696160  	0.121094 
985.624976  	0.118546 
987.553792  	0.118392 
989.482608  	0.120038 
991.411424  	0.123456 
993.340240  	0.128495 
995.269056  	0.134657 
997.197872  	0.141222 
999.126688  	0.147434 
1001.055504  	0.153594 
1002.984320  	0.159449 
1004.913136  	0.164861 
1006.841952  	0.169448 
1008.770768  	0.173055 
1010.699584  	0.175059 
1012.628400  	0.175850 
1014.557216  	0.175714 
1016.486032  	0.175357 
1018.414848  	0.174804 
1020.343664  	0.174706 
1022.272480  	0.174523 
1024.201296  	0.172804 
1026.130112  	0.165529 
1028.058928  	0.162365 
1029.987744  	0.168625 
1031.916560  	0.170543 
1033.845376  	0.168628 
1035.774192  	0.164535 
1037.703008  	0.161951 
1039.631824  	0.165535 
1041.560640  	0.170654 
1043.489456  	0.177267 
1045.418272  	0.186297 
1047.347088  	0.198069 
1049.275904  	0.210988 
1051.204720  	0.223360 
1053.133536  	0.234035 
1055.062352  	0.241499 
1056.991168  	0.244132 
1058.919984  	0.250773 
1060.848800  	0.257164 
1062.777616  	0.254095 
1064.706432  	0.241833 
1066.635248  	0.233882 
1068.564064  	0.238060 
1070.492880  	0.236550 
1072.421696  	0.227634 
1074.350512  	0.219488 
1076.279328  	0.215097 
1078.208144  	0.214250 
1080.136960  	0.216462 
1082.065776  	0.219987 
1083.994592  	0.223510 
1085.923408  	0.226444 
1087.852224  	0.227539 
1089.781040  	0.227822 
1091.709856  	0.228250 
1093.638672  	0.224933 
1095.567488  	0.217307 
1097.496304  	0.208373 
1099.425120  	0.198548 
1101.353936  	0.188605 
1103.282752  	0.178873 
1105.211568  	0.169400 
1107.140384  	0.160428 
1109.069200  	0.151775 
1110.998016  	0.143947 
1112.926832  	0.136628 
1114.855648  	0.129396 
1116.784464  	0.122116 
1118.713280  	0.115698 
1120.642096  	0.109472 
1122.570912  	0.103097 
1124.499728  	0.097230 
1126.428544  	0.091752 
1128.357360  	0.086466 
1130.286176  	0.081843 
1132.214992  	0.077923 
1134.143808  	0.074655 
1136.072624  	0.071659 
1138.001440  	0.068795 
1139.930256  	0.065949 
1141.859072  	0.063519 
1143.787888  	0.060941 
1145.716704  	0.058735 
1147.645520  	0.056844 
1149.574336  	0.055479 
1151.503152  	0.054323 
1153.431968  	0.053744 
1155.360784  	0.053681 
1157.289600  	0.054168 
1159.218416  	0.055199 
1161.147232  	0.056742 
1163.076048  	0.058160 
1165.004864  	0.059974 
1166.933680  	0.061722 
1168.862496  	0.063945 
1170.791312  	0.066230 
1172.720128  	0.068473 
1174.648944  	0.070774 
1176.577760  	0.073324 
1178.506576  	0.075804 
1180.435392  	0.078086 
1182.364208  	0.080271 
1184.293024  	0.082822 
1186.221840  	0.085401 
1188.150656  	0.088219 
1190.079472  	0.091799 
1192.008288  	0.096323 
1193.937104  	0.101459 
1195.865920  	0.107330 
1197.794736  	0.113579 
1199.723552  	0.120753 
1201.652368  	0.128070 
1203.581184  	0.135444 
1205.510000  	0.142747 
1207.438816  	0.150133 
1209.367632  	0.157107 
1211.296448  	0.163520 
1213.225264  	0.168789 
1215.154080  	0.173040 
1217.082896  	0.176341 
1219.011712  	0.178576 
1220.940528  	0.180342 
1222.869344  	0.181775 
1224.798160  	0.182668 
1226.726976  	0.182877 
1228.655792  	0.183035 
1230.584608  	0.183011 
1232.513424  	0.182815 
1234.442240  	0.182217 
1236.371056  	0.180629 
1238.299872  	0.177439 
1240.228688  	0.169222 
1242.157504  	0.161882 
1244.086320  	0.158339 
1246.015136  	0.151332 
1247.943952  	0.141907 
1249.872768  	0.133000 
1251.801584  	0.126609 
1253.730400  	0.120258 
1255.659216  	0.113899 
1257.588032  	0.107806 
1259.516848  	0.102321 
1261.445664  	0.097579 
1263.374480  	0.093589 
1265.303296  	0.090087 
1267.232112  	0.087517 
1269.160928  	0.085675 
1271.089744  	0.084433 
1273.018560  	0.083861 
1274.947376  	0.083745 
1276.876192  	0.083536 
1278.805008  	0.082855 
1280.733824  	0.081358 
1282.662640  	0.078877 
1284.591456  	0.075772 
1286.520272  	0.072753 
1288.449088  	0.070354 
1290.377904  	0.068420 
1292.306720  	0.067059 
1294.235536  	0.065312 
1296.164352  	0.062796 
1298.093168  	0.059559 
1300.021984  	0.056193 
1301.950800  	0.052857 
1303.879616  	0.049841 
1305.808432  	0.047307 
1307.737248  	0.045280 
1309.666064  	0.043359 
1311.594880  	0.042408 
1313.523696  	0.041886 
1315.452512  	0.041348 
1317.381328  	0.041453 
1319.310144  	0.041855 
1321.238960  	0.042092 
1323.167776  	0.042603 
1325.096592  	0.043181 
1327.025408  	0.043593 
1328.954224  	0.043416 
1330.883040  	0.042788 
1332.811856  	0.041791 
1334.740672  	0.041169 
1336.669488  	0.041100 
1338.598304  	0.041558 
1340.527120  	0.040441 
1342.455936  	0.038211 
1344.384752  	0.037479 
1346.313568  	0.037769 
1348.242384  	0.038574 
1350.171200  	0.039981 
1352.100016  	0.041695 
1354.028832  	0.043509 
1355.957648  	0.045288 
1357.886464  	0.046928 
1359.815280  	0.048847 
1361.744096  	0.051251 
1363.672912  	0.051863 
1365.601728  	0.050559 
1367.530544  	0.050181 
1369.459360  	0.049259 
1371.388176  	0.047070 
1373.316992  	0.044880 
1375.245808  	0.041147 
1377.174624  	0.036881 
1379.103440  	0.033052 
1381.032256  	0.029659 
1382.961072  	0.027610 
1384.889888  	0.027524 
1386.818704  	0.029011 
1388.747520  	0.028630 
1390.676336  	0.024551 
1392.605152  	0.017081 
1394.533968  	0.015444 
1396.462784  	0.023522 
1398.391600  	0.026156 
1400.320416  	0.024336 
1402.249232  	0.022067 
1404.178048  	0.022147 
1406.106864  	0.022718 
1408.035680  	0.024369 
1409.964496  	0.027816 
1411.893312  	0.032402 
1413.822128  	0.036791 
1415.750944  	0.042074 
1417.679760  	0.046724 
1419.608576  	0.048817 
1421.537392  	0.048297 
1423.466208  	0.048598 
1425.395024  	0.047421 
1427.323840  	0.045721 
1429.252656  	0.044726 
1431.181472  	0.043775 
1433.110288  	0.043183 
1435.039104  	0.043809 
1436.967920  	0.044760 
1438.896736  	0.044420 
1440.825552  	0.044319 
1442.754368  	0.044819 
1444.683184  	0.044957 
1446.612000  	0.045401 
1448.540816  	0.044680 
1450.469632  	0.043954 
1452.398448  	0.044569 
1454.327264  	0.046024 
1456.256080  	0.049276 
1458.184896  	0.051097 
1460.113712  	0.049691 
1462.042528  	0.049184 
1463.971344  	0.050104 
1465.900160  	0.052434 
1467.828976  	0.054506 
1469.757792  	0.057499 
1471.686608  	0.062602 
1473.615424  	0.069003 
1475.544240  	0.072482 
1477.473056  	0.074941 
1479.401872  	0.076045 
1481.330688  	0.077563 
1483.259504  	0.077994 
1485.188320  	0.078062 
1487.117136  	0.077925 
1489.045952  	0.077711 
1490.974768  	0.073996 
1492.903584  	0.069140 
1494.832400  	0.065820 
1496.761216  	0.062495 
1498.690032  	0.058389 
1500.618848  	0.054982 
1502.547664  	0.051733 
1504.476480  	0.049329 
1506.405296  	0.050369 
1508.334112  	0.050960 
1510.262928  	0.047402 
1512.191744  	0.044661 
1514.120560  	0.043641 
1516.049376  	0.044806 
1517.978192  	0.045264 
1519.907008  	0.046257 
1521.835824  	0.049416 
1523.764640  	0.051609 
1525.693456  	0.054543 
1527.622272  	0.056689 
1529.551088  	0.057044 
1531.479904  	0.057349 
1533.408720  	0.057092 
1535.337536  	0.054824 
1537.266352  	0.052043 
1539.195168  	0.049135 
1541.123984  	0.047118 
1543.052800  	0.046676 
1544.981616  	0.045128 
1546.910432  	0.042339 
1548.839248  	0.041953 
1550.768064  	0.042563 
1552.696880  	0.041718 
1554.625696  	0.042776 
1556.554512  	0.043062 
1558.483328  	0.045616 
1560.412144  	0.049656 
1562.340960  	0.050952 
1564.269776  	0.053356 
1566.198592  	0.057732 
1568.127408  	0.061493 
1570.056224  	0.067519 
1571.985040  	0.071999 
1573.913856  	0.074702 
1575.842672  	0.076911 
1577.771488  	0.079284 
1579.700304  	0.078831 
1581.629120  	0.078302 
1583.557936  	0.078250 
1585.486752  	0.079721 
1587.415568  	0.082323 
1589.344384  	0.086831 
1591.273200  	0.092148 
1593.202016  	0.098570 
1595.130832  	0.104946 
1597.059648  	0.111021 
1598.988464  	0.115639 
1600.917280  	0.119710 
1602.846096  	0.122069 
1604.774912  	0.123263 
1606.703728  	0.122941 
1608.632544  	0.122302 
1610.561360  	0.120847 
1612.490176  	0.119916 
1614.418992  	0.119133 
1616.347808  	0.120216 
1618.276624  	0.122973 
1620.205440  	0.126577 
1622.134256  	0.130837 
1624.063072  	0.138291 
1625.991888  	0.144828 
1627.920704  	0.152719 
1629.849520  	0.161394 
1631.778336  	0.169437 
1633.707152  	0.176003 
1635.635968  	0.185299 
1637.564784  	0.193736 
1639.493600  	0.198560 
1641.422416  	0.202540 
1643.351232  	0.205818 
1645.280048  	0.207448 
1647.208864  	0.209406 
1649.137680  	0.209021 
1651.066496  	0.207407 
1652.995312  	0.204524 
1654.924128  	0.203566 
1656.852944  	0.200825 
1658.781760  	0.198099 
1660.710576  	0.195570 
1662.639392  	0.192845 
1664.568208  	0.189856 
1666.497024  	0.187889 
1668.425840  	0.185787 
1670.354656  	0.183306 
1672.283472  	0.181192 
1674.212288  	0.179863 
1676.141104  	0.178820 
1678.069920  	0.178619 
1679.998736  	0.179219 
1681.927552  	0.179230 
1683.856368  	0.178878 
1685.785184  	0.178870 
1687.714000  	0.178046 
1689.642816  	0.176333 
1691.571632  	0.173393 
1693.500448  	0.171179 
1695.429264  	0.168343 
1697.358080  	0.165228 
1699.286896  	0.161250 
1701.215712  	0.155288 
1703.144528  	0.151117 
1705.073344  	0.146077 
1707.002160  	0.139557 
1708.930976  	0.133542 
1710.859792  	0.127281 
1712.788608  	0.120963 
1714.717424  	0.114727 
1716.646240  	0.107289 
1718.575056  	0.097815 
1720.503872  	0.088966 
1722.432688  	0.082207 
1724.361504  	0.074522 
1726.290320  	0.067617 
1728.219136  	0.061988 
1730.147952  	0.057346 
1732.076768  	0.052476 
1734.005584  	0.047517 
1735.934400  	0.041129 
1737.863216  	0.037471 
1739.792032  	0.033306 
1741.720848  	0.030706 
1743.649664  	0.028627 
1745.578480  	0.026074 
1747.507296  	0.023949 
1749.436112  	0.023055 
1751.364928  	0.021405 
1753.293744  	0.019031 
1755.222560  	0.017311 
1757.151376  	0.016929 
1759.080192  	0.015604 
1761.009008  	0.015286 
1762.937824  	0.014584 
1764.866640  	0.013689 
1766.795456  	0.013535 
1768.724272  	0.013902 
1770.653088  	0.012545 
1772.581904  	0.012320 
1774.510720  	0.012193 
1776.439536  	0.012093 
1778.368352  	0.011669 
1780.297168  	0.011996 
1782.225984  	0.011381 
1784.154800  	0.011220 
1786.083616  	0.010900 
1788.012432  	0.010453 
1789.941248  	0.010574 
1791.870064  	0.011251 
1793.798880  	0.010705 
1795.727696  	0.010667 
1797.656512  	0.009994 
1799.585328  	0.009944 
1801.514144  	0.010439 
1803.442960  	0.009881 
1805.371776  	0.008994 
1807.300592  	0.009148 
1809.229408  	0.008962 
1811.158224  	0.009214 
1813.087040  	0.008609 
1815.015856  	0.008066 
1816.944672  	0.008092 
1818.873488  	0.008363 
1820.802304  	0.008292 
1822.731120  	0.008563 
1824.659936  	0.008867 
1826.588752  	0.008923 
1828.517568  	0.008532 
1830.446384  	0.009188 
1832.375200  	0.008632 
1834.304016  	0.008175 
1836.232832  	0.007930 
1838.161648  	0.008333 
1840.090464  	0.008091 
1842.019280  	0.008321 
1843.948096  	0.008415 
1845.876912  	0.008707 
1847.805728  	0.008510 
1849.734544  	0.008244 
1851.663360  	0.007672 
1853.592176  	0.007678 
1855.520992  	0.007536 
1857.449808  	0.008127 
1859.378624  	0.008073 
1861.307440  	0.008052 
1863.236256  	0.007669 
1865.165072  	0.007912 
1867.093888  	0.008435 
1869.022704  	0.009444 
1870.951520  	0.008362 
1872.880336  	0.007663 
1874.809152  	0.007315 
1876.737968  	0.007440 
1878.666784  	0.007098 
1880.595600  	0.007288 
1882.524416  	0.007347 
1884.453232  	0.007421 
1886.382048  	0.007008 
1888.310864  	0.007498 
1890.239680  	0.007647 
1892.168496  	0.007452 
1894.097312  	0.007230 
1896.026128  	0.007485 
1897.954944  	0.006891 
1899.883760  	0.006969 
1901.812576  	0.006804 
1903.741392  	0.006780 
1905.670208  	0.006438 
1907.599024  	0.006480 
1909.527840  	0.006325 
1911.456656  	0.006380 
1913.385472  	0.006106 
1915.314288  	0.006570 
1917.243104  	0.007020 
1919.171920  	0.007195 
1921.100736  	0.007012 
1923.029552  	0.007772 
1924.958368  	0.006189 
1926.887184  	0.005936 
1928.816000  	0.005376 
1930.744816  	0.005156 
1932.673632  	0.004978 
1934.602448  	0.005312 
1936.531264  	0.005389 
1938.460080  	0.005494 
1940.388896  	0.005692 
1942.317712  	0.006669 
1944.246528  	0.006307 
1946.175344  	0.006496 
1948.104160  	0.005860 
1950.032976  	0.005792 
1951.961792  	0.005862 
1953.890608  	0.006136 
1955.819424  	0.005023 
1957.748240  	0.005320 
1959.677056  	0.006023 
1961.605872  	0.005779 
1963.534688  	0.004461 
1965.463504  	0.006531 
1967.392320  	0.007222 
1969.321136  	0.006658 
1971.249952  	0.006428 
1973.178768  	0.007326 
1975.107584  	0.006068 
1977.036400  	0.005994 
1978.965216  	0.008121 
1980.894032  	0.008208 
1982.822848  	0.006355 
1984.751664  	0.007403 
1986.680480  	0.007317 
1988.609296  	0.007137 
1990.538112  	0.007089 
1992.466928  	0.008385 
1994.395744  	0.007428 
1996.324560  	0.006261 
1998.253376  	0.005687 
2000.182192  	0.005928 
2002.111008  	0.005805 
2004.039824  	0.005866 
2005.968640  	0.005003 
2007.897456  	0.006916 
2009.826272  	0.006687 
2011.755088  	0.005700 
2013.683904  	0.006657 
2015.612720  	0.008392 
2017.541536  	0.007321 
2019.470352  	0.007084 
2021.399168  	0.006264 
2023.327984  	0.006953 
2025.256800  	0.006540 
2027.185616  	0.005994 
2029.114432  	0.006230 
2031.043248  	0.008254 
2032.972064  	0.007337 
2034.900880  	0.007377 
2036.829696  	0.007184 
2038.758512  	0.007084 
2040.687328  	0.007099 
2042.616144  	0.007267 
2044.544960  	0.007618 
2046.473776  	0.007875 
2048.402592  	0.007337 
2050.331408  	0.008511 
2052.260224  	0.007823 
2054.189040  	0.007489 
2056.117856  	0.006785 
2058.046672  	0.006880 
2059.975488  	0.006620 
2061.904304  	0.006833 
2063.833120  	0.007684 
2065.761936  	0.008218 
2067.690752  	0.007495 
2069.619568  	0.006883 
2071.548384  	0.005972 
2073.477200  	0.006469 
2075.406016  	0.007187 
2077.334832  	0.007544 
2079.263648  	0.006944 
2081.192464  	0.007100 
2083.121280  	0.007565 
2085.050096  	0.007617 
2086.978912  	0.007158 
2088.907728  	0.007031 
2090.836544  	0.006384 
2092.765360  	0.006030 
2094.694176  	0.006529 
2096.622992  	0.006820 
2098.551808  	0.006373 
2100.480624  	0.006432 
2102.409440  	0.006308 
2104.338256  	0.006635 
2106.267072  	0.006758 
2108.195888  	0.006862 
2110.124704  	0.007348 
2112.053520  	0.007745 
2113.982336  	0.007373 
2115.911152  	0.007651 
2117.839968  	0.006927 
2119.768784  	0.006070 
2121.697600  	0.005684 
2123.626416  	0.005657 
2125.555232  	0.005533 
2127.484048  	0.006027 
2129.412864  	0.005927 
2131.341680  	0.005154 
2133.270496  	0.005561 
2135.199312  	0.006359 
2137.128128  	0.006102 
2139.056944  	0.006339 
2140.985760  	0.005628 
2142.914576  	0.006326 
2144.843392  	0.006118 
2146.772208  	0.006052 
2148.701024  	0.006107 
2150.629840  	0.006628 
2152.558656  	0.005569 
2154.487472  	0.005021 
2156.416288  	0.004765 
2158.345104  	0.006837 
2160.273920  	0.009430 
2162.202736  	0.009828 
2164.131552  	0.008844 
2166.060368  	0.009539 
2167.989184  	0.008086 
2169.918000  	0.007023 
2171.846816  	0.007412 
2173.775632  	0.008164 
2175.704448  	0.008724 
2177.633264  	0.009546 
2179.562080  	0.008958 
2181.490896  	0.008415 
2183.419712  	0.007711 
2185.348528  	0.008531 
2187.277344  	0.008945 
2189.206160  	0.009050 
2191.134976  	0.009139 
2193.063792  	0.009896 
2194.992608  	0.010348 
2196.921424  	0.009420 
2198.850240  	0.008919 
2200.779056  	0.008970 
2202.707872  	0.008952 
2204.636688  	0.009051 
2206.565504  	0.009346 
2208.494320  	0.009702 
2210.423136  	0.007763 
2212.351952  	0.008256 
2214.280768  	0.008921 
2216.209584  	0.008464 
2218.138400  	0.008143 
2220.067216  	0.008241 
2221.996032  	0.008025 
2223.924848  	0.007734 
2225.853664  	0.007859 
2227.782480  	0.008612 
2229.711296  	0.008838 
2231.640112  	0.008852 
2233.568928  	0.008423 
2235.497744  	0.008310 
2237.426560  	0.007684 
2239.355376  	0.008171 
2241.284192  	0.008002 
2243.213008  	0.007807 
2245.141824  	0.007793 
2247.070640  	0.007365 
2248.999456  	0.007156 
2250.928272  	0.007341 
2252.857088  	0.007439 
2254.785904  	0.007730 
2256.714720  	0.007983 
2258.643536  	0.008280 
2260.572352  	0.008012 
2262.501168  	0.008030 
2264.429984  	0.007883 
2266.358800  	0.008233 
2268.287616  	0.008189 
2270.216432  	0.008132 
2272.145248  	0.007905 
2274.074064  	0.008188 
2276.002880  	0.008084 
2277.931696  	0.008298 
2279.860512  	0.008641 
2281.789328  	0.008998 
2283.718144  	0.009036 
2285.646960  	0.009090 
2287.575776  	0.008942 
2289.504592  	0.008692 
2291.433408  	0.008465 
2293.362224  	0.008593 
2295.291040  	0.008601 
2297.219856  	0.008892 
2299.148672  	0.009032 
2301.077488  	0.008999 
2303.006304  	0.008931 
2304.935120  	0.008688 
2306.863936  	0.008227 
2308.792752  	0.008175 
2310.721568  	0.008040 
2312.650384  	0.007448 
2314.579200  	0.006713 
2316.508016  	0.006322 
2318.436832  	0.005644 
2320.365648  	0.004688 
2322.294464  	0.003728 
2324.223280  	0.002451 
2326.152096  	0.000165 
2328.080912  	-0.001508 
2330.009728  	-0.002575 
2331.938544  	-0.003621 
2333.867360  	-0.005042 
2335.796176  	-0.006032 
2337.724992  	-0.006684 
2339.653808  	-0.006832 
2341.582624  	-0.006766 
2343.511440  	-0.005186 
2345.440256  	-0.002461 
2347.369072  	0.000849 
2349.297888  	0.001532 
2351.226704  	-0.001252 
2353.155520  	-0.005143 
2355.084336  	-0.008504 
2357.013152  	-0.010671 
2358.941968  	-0.011634 
2360.870784  	-0.012437 
2362.799600  	-0.012014 
2364.728416  	-0.010388 
2366.657232  	-0.008028 
2368.586048  	-0.005705 
2370.514864  	-0.002557 
2372.443680  	0.000372 
2374.372496  	0.003020 
2376.301312  	0.005216 
2378.230128  	0.007090 
2380.158944  	0.008076 
2382.087760  	0.008507 
2384.016576  	0.008636 
2385.945392  	0.008596 
2387.874208  	0.008320 
2389.803024  	0.008283 
2391.731840  	0.008209 
2393.660656  	0.008231 
2395.589472  	0.008318 
2397.518288  	0.008303 
2399.447104  	0.008130 
2401.375920  	0.007961 
2403.304736  	0.008073 
2405.233552  	0.008252 
2407.162368  	0.008413 
2409.091184  	0.008337 
2411.020000  	0.008273 
2412.948816  	0.008412 
2414.877632  	0.008366 
2416.806448  	0.008500 
2418.735264  	0.008690 
2420.664080  	0.008779 
2422.592896  	0.008520 
2424.521712  	0.008475 
2426.450528  	0.008545 
2428.379344  	0.008439 
2430.308160  	0.008489 
2432.236976  	0.008682 
2434.165792  	0.008844 
2436.094608  	0.009358 
2438.023424  	0.009596 
2439.952240  	0.009723 
2441.881056  	0.009663 
2443.809872  	0.009508 
2445.738688  	0.009548 
2447.667504  	0.009570 
2449.596320  	0.009643 
2451.525136  	0.009911 
2453.453952  	0.009942 
2455.382768  	0.009977 
2457.311584  	0.009983 
2459.240400  	0.009902 
2461.169216  	0.009719 
2463.098032  	0.009717 
2465.026848  	0.009813 
2466.955664  	0.009849 
2468.884480  	0.009650 
2470.813296  	0.009723 
2472.742112  	0.009847 
2474.670928  	0.009865 
2476.599744  	0.009941 
2478.528560  	0.010091 
2480.457376  	0.010249 
2482.386192  	0.010369 
2484.315008  	0.010325 
2486.243824  	0.010461 
2488.172640  	0.010456 
2490.101456  	0.010436 
2492.030272  	0.010687 
2493.959088  	0.010895 
2495.887904  	0.010539 
2497.816720  	0.010625 
2499.745536  	0.010767 
2501.674352  	0.010909 
2503.603168  	0.010823 
2505.531984  	0.010960 
2507.460800  	0.011128 
2509.389616  	0.011226 
2511.318432  	0.011140 
2513.247248  	0.011138 
2515.176064  	0.011157 
2517.104880  	0.011400 
2519.033696  	0.011452 
2520.962512  	0.011483 
2522.891328  	0.011835 
2524.820144  	0.011865 
2526.748960  	0.011711 
2528.677776  	0.011876 
2530.606592  	0.011975 
2532.535408  	0.011880 
2534.464224  	0.011884 
2536.393040  	0.011960 
2538.321856  	0.011779 
2540.250672  	0.011816 
2542.179488  	0.011991 
2544.108304  	0.012200 
2546.037120  	0.012290 
2547.965936  	0.012570 
2549.894752  	0.012633 
2551.823568  	0.012648 
2553.752384  	0.012637 
2555.681200  	0.012696 
2557.610016  	0.012902 
2559.538832  	0.013014 
2561.467648  	0.012981 
2563.396464  	0.013172 
2565.325280  	0.013547 
2567.254096  	0.013619 
2569.182912  	0.013265 
2571.111728  	0.013137 
2573.040544  	0.013142 
2574.969360  	0.013233 
2576.898176  	0.013393 
2578.826992  	0.013789 
2580.755808  	0.013751 
2582.684624  	0.013663 
2584.613440  	0.013822 
2586.542256  	0.013988 
2588.471072  	0.014033 
2590.399888  	0.013966 
2592.328704  	0.013913 
2594.257520  	0.014109 
2596.186336  	0.014449 
2598.115152  	0.014649 
2600.043968  	0.014499 
2601.972784  	0.014475 
2603.901600  	0.014639 
2605.830416  	0.014824 
2607.759232  	0.014601 
2609.688048  	0.014715 
2611.616864  	0.015064 
2613.545680  	0.015203 
2615.474496  	0.015114 
2617.403312  	0.015148 
2619.332128  	0.015249 
2621.260944  	0.015326 
2623.189760  	0.015372 
2625.118576  	0.015498 
2627.047392  	0.015588 
2628.976208  	0.015854 
2630.905024  	0.016023 
2632.833840  	0.016187 
2634.762656  	0.016315 
2636.691472  	0.016307 
2638.620288  	0.016299 
2640.549104  	0.016375 
2642.477920  	0.016484 
2644.406736  	0.016513 
2646.335552  	0.016706 
2648.264368  	0.017005 
2650.193184  	0.017109 
2652.122000  	0.017238 
2654.050816  	0.017443 
2655.979632  	0.017486 
2657.908448  	0.017482 
2659.837264  	0.017568 
2661.766080  	0.017605 
2663.694896  	0.017572 
2665.623712  	0.017519 
2667.552528  	0.017567 
2669.481344  	0.017716 
2671.410160  	0.017911 
2673.338976  	0.018061 
2675.267792  	0.018252 
2677.196608  	0.018313 
2679.125424  	0.018454 
2681.054240  	0.018515 
2682.983056  	0.018628 
2684.911872  	0.018851 
2686.840688  	0.018974 
2688.769504  	0.018958 
2690.698320  	0.019037 
2692.627136  	0.019173 
2694.555952  	0.019287 
2696.484768  	0.019245 
2698.413584  	0.019270 
2700.342400  	0.019351 
2702.271216  	0.019573 
2704.200032  	0.019810 
2706.128848  	0.019934 
2708.057664  	0.019970 
2709.986480  	0.019934 
2711.915296  	0.019903 
2713.844112  	0.020039 
2715.772928  	0.020160 
2717.701744  	0.020232 
2719.630560  	0.020200 
2721.559376  	0.020227 
2723.488192  	0.020440 
2725.417008  	0.020721 
2727.345824  	0.020777 
2729.274640  	0.020735 
2731.203456  	0.020674 
2733.132272  	0.020725 
2735.061088  	0.020912 
2736.989904  	0.020976 
2738.918720  	0.020953 
2740.847536  	0.020892 
2742.776352  	0.020945 
2744.705168  	0.021113 
2746.633984  	0.021123 
2748.562800  	0.021134 
2750.491616  	0.021201 
2752.420432  	0.021236 
2754.349248  	0.021352 
2756.278064  	0.021355 
2758.206880  	0.021303 
2760.135696  	0.021470 
2762.064512  	0.021456 
2763.993328  	0.021347 
2765.922144  	0.021373 
2767.850960  	0.021414 
2769.779776  	0.021324 
2771.708592  	0.021322 
2773.637408  	0.021287 
2775.566224  	0.021226 
2777.495040  	0.021227 
2779.423856  	0.021255 
2781.352672  	0.021365 
2783.281488  	0.021329 
2785.210304  	0.021226 
2787.139120  	0.021373 
2789.067936  	0.021396 
2790.996752  	0.021293 
2792.925568  	0.021250 
2794.854384  	0.021276 
2796.783200  	0.021280 
2798.712016  	0.021205 
2800.640832  	0.021121 
2802.569648  	0.021181 
2804.498464  	0.021262 
2806.427280  	0.021296 
2808.356096  	0.021357 
2810.284912  	0.021447 
2812.213728  	0.021310 
2814.142544  	0.021206 
2816.071360  	0.021193 
2818.000176  	0.020976 
2819.928992  	0.020666 
2821.857808  	0.020454 
2823.786624  	0.020251 
2825.715440  	0.020102 
2827.644256  	0.019730 
2829.573072  	0.019393 
2831.501888  	0.019022 
2833.430704  	0.018481 
2835.359520  	0.017818 
2837.288336  	0.017164 
2839.217152  	0.016558 
2841.145968  	0.016008 
2843.074784  	0.015374 
2845.003600  	0.014935 
2846.932416  	0.014742 
2848.861232  	0.014294 
2850.790048  	0.013251 
2852.718864  	0.011626 
2854.647680  	0.009831 
2856.576496  	0.008107 
2858.505312  	0.006271 
2860.434128  	0.004403 
2862.362944  	0.002298 
2864.291760  	-0.000017 
2866.220576  	-0.002000 
2868.149392  	-0.003102 
2870.078208  	-0.003680 
2872.007024  	-0.004242 
2873.935840  	-0.004812 
2875.864656  	-0.005466 
2877.793472  	-0.006464 
2879.722288  	-0.007973 
2881.651104  	-0.010004 
2883.579920  	-0.011584 
2885.508736  	-0.011927 
2887.437552  	-0.011576 
2889.366368  	-0.011639 
2891.295184  	-0.012511 
2893.224000  	-0.013318 
2895.152816  	-0.013361 
2897.081632  	-0.014280 
2899.010448  	-0.018480 
2900.939264  	-0.022152 
2902.868080  	-0.019167 
2904.796896  	-0.015942 
2906.725712  	-0.014723 
2908.654528  	-0.013844 
2910.583344  	-0.013116 
2912.512160  	-0.011098 
2914.440976  	-0.007976 
2916.369792  	-0.006016 
2918.298608  	-0.005242 
2920.227424  	-0.004905 
2922.156240  	-0.004427 
2924.085056  	-0.003617 
2926.013872  	-0.002631 
2927.942688  	-0.001505 
2929.871504  	-0.000328 
2931.800320  	0.000603 
2933.729136  	0.001165 
2935.657952  	0.001316 
2937.586768  	0.001715 
2939.515584  	0.001698 
2941.444400  	0.001133 
2943.373216  	0.000796 
2945.302032  	0.000821 
2947.230848  	0.000820 
2949.159664  	-0.000090 
2951.088480  	-0.001902 
2953.017296  	-0.003510 
2954.946112  	-0.005120 
2956.874928  	-0.007026 
2958.803744  	-0.008850 
2960.732560  	-0.010321 
2962.661376  	-0.011874 
2964.590192  	-0.014236 
2966.519008  	-0.017215 
2968.447824  	-0.019983 
2970.376640  	-0.021883 
2972.305456  	-0.022825 
2974.234272  	-0.022366 
2976.163088  	-0.021894 
2978.091904  	-0.021612 
2980.020720  	-0.021543 
2981.949536  	-0.021374 
2983.878352  	-0.022387 
2985.807168  	-0.024940 
2987.735984  	-0.026990 
2989.664800  	-0.025682 
2991.593616  	-0.017861 
2993.522432  	-0.013297 
2995.451248  	-0.012249 
2997.380064  	-0.010385 
2999.308880  	-0.007570 
3001.237696  	-0.004367 
3003.166512  	-0.001305 
3005.095328  	0.001701 
3007.024144  	0.004966 
3008.952960  	0.008208 
3010.881776  	0.011414 
3012.810592  	0.014607 
3014.739408  	0.017365 
3016.668224  	0.019975 
3018.597040  	0.022541 
3020.525856  	0.024952 
3022.454672  	0.027178 
3024.383488  	0.029310 
3026.312304  	0.031386 
3028.241120  	0.033260 
3030.169936  	0.034930 
3032.098752  	0.036587 
3034.027568  	0.037969 
3035.956384  	0.039154 
3037.885200  	0.040336 
3039.814016  	0.041506 
3041.742832  	0.042561 
3043.671648  	0.043389 
3045.600464  	0.044048 
3047.529280  	0.044709 
3049.458096  	0.045347 
3051.386912  	0.045792 
3053.315728  	0.046394 
3055.244544  	0.047064 
3057.173360  	0.047691 
3059.102176  	0.048289 
3061.030992  	0.048782 
3062.959808  	0.049292 
3064.888624  	0.049821 
3066.817440  	0.050255 
3068.746256  	0.050748 
3070.675072  	0.051172 
3072.603888  	0.051770 
3074.532704  	0.052354 
3076.461520  	0.052776 
3078.390336  	0.053179 
3080.319152  	0.053731 
3082.247968  	0.054336 
3084.176784  	0.054885 
3086.105600  	0.055327 
3088.034416  	0.055760 
3089.963232  	0.056261 
3091.892048  	0.056818 
3093.820864  	0.057281 
3095.749680  	0.057833 
3097.678496  	0.058112 
3099.607312  	0.058598 
3101.536128  	0.059200 
3103.464944  	0.059673 
3105.393760  	0.060000 
3107.322576  	0.060530 
3109.251392  	0.061220 
3111.180208  	0.061662 
3113.109024  	0.061927 
3115.037840  	0.062290 
3116.966656  	0.062704 
3118.895472  	0.063186 
3120.824288  	0.063502 
3122.753104  	0.063758 
3124.681920  	0.064148 
3126.610736  	0.064477 
3128.539552  	0.064736 
3130.468368  	0.065026 
3132.397184  	0.065390 
3134.326000  	0.065680 
3136.254816  	0.065864 
3138.183632  	0.066214 
3140.112448  	0.066510 
3142.041264  	0.066779 
3143.970080  	0.067185 
3145.898896  	0.067693 
3147.827712  	0.067921 
3149.756528  	0.068260 
3151.685344  	0.068788 
3153.614160  	0.069028 
3155.542976  	0.069248 
3157.471792  	0.069693 
3159.400608  	0.070275 
3161.329424  	0.070782 
3163.258240  	0.071142 
3165.187056  	0.071416 
3167.115872  	0.071661 
3169.044688  	0.071964 
3170.973504  	0.072130 
3172.902320  	0.072342 
3174.831136  	0.072667 
3176.759952  	0.073037 
3178.688768  	0.073339 
3180.617584  	0.073348 
3182.546400  	0.073201 
3184.475216  	0.073450 
3186.404032  	0.073724 
3188.332848  	0.073692 
3190.261664  	0.073777 
3192.190480  	0.073775 
3194.119296  	0.073599 
3196.048112  	0.073606 
3197.976928  	0.073707 
3199.905744  	0.073672 
3201.834560  	0.073477 
3203.763376  	0.073430 
3205.692192  	0.073417 
3207.621008  	0.073160 
3209.549824  	0.072950 
3211.478640  	0.072816 
3213.407456  	0.072561 
3215.336272  	0.072485 
3217.265088  	0.072363 
3219.193904  	0.072001 
3221.122720  	0.071459 
3223.051536  	0.071246 
3224.980352  	0.071132 
3226.909168  	0.070764 
3228.837984  	0.070498 
3230.766800  	0.070529 
3232.695616  	0.070630 
3234.624432  	0.070371 
3236.553248  	0.070203 
3238.482064  	0.070227 
3240.410880  	0.070122 
3242.339696  	0.070062 
3244.268512  	0.070119 
3246.197328  	0.070191 
3248.126144  	0.070147 
3250.054960  	0.070178 
3251.983776  	0.070150 
3253.912592  	0.070208 
3255.841408  	0.070278 
3257.770224  	0.070433 
3259.699040  	0.070707 
3261.627856  	0.070980 
3263.556672  	0.071135 
3265.485488  	0.071148 
3267.414304  	0.071275 
3269.343120  	0.071316 
3271.271936  	0.071537 
3273.200752  	0.071953 
3275.129568  	0.072198 
3277.058384  	0.072259 
3278.987200  	0.072350 
3280.916016  	0.072433 
3282.844832  	0.072503 
3284.773648  	0.072627 
3286.702464  	0.072766 
3288.631280  	0.073095 
3290.560096  	0.073413 
3292.488912  	0.073731 
3294.417728  	0.073829 
3296.346544  	0.073923 
3298.275360  	0.074087 
3300.204176  	0.074477 
3302.132992  	0.074812 
3304.061808  	0.075117 
3305.990624  	0.075453 
3307.919440  	0.075686 
3309.848256  	0.075797 
3311.777072  	0.075847 
3313.705888  	0.076093 
3315.634704  	0.076500 
3317.563520  	0.076852 
3319.492336  	0.077109 
3321.421152  	0.077062 
3323.349968  	0.077262 
3325.278784  	0.077729 
3327.207600  	0.077874 
3329.136416  	0.077620 
3331.065232  	0.077403 
3332.994048  	0.077529 
3334.922864  	0.077791 
3336.851680  	0.077744 
3338.780496  	0.077553 
3340.709312  	0.077418 
3342.638128  	0.077356 
3344.566944  	0.077048 
3346.495760  	0.076742 
3348.424576  	0.076535 
3350.353392  	0.076327 
3352.282208  	0.075985 
3354.211024  	0.075718 
3356.139840  	0.075508 
3358.068656  	0.075026 
3359.997472  	0.074715 
3361.926288  	0.074452 
3363.855104  	0.073908 
3365.783920  	0.073482 
3367.712736  	0.073244 
3369.641552  	0.072747 
3371.570368  	0.072110 
3373.499184  	0.071720 
3375.428000  	0.071511 
3377.356816  	0.071179 
3379.285632  	0.070748 
3381.214448  	0.070290 
3383.143264  	0.070013 
3385.072080  	0.069925 
3387.000896  	0.069357 
3388.929712  	0.068933 
3390.858528  	0.068666 
3392.787344  	0.068432 
3394.716160  	0.067894 
3396.644976  	0.067316 
3398.573792  	0.066937 
3400.502608  	0.066404 
3402.431424  	0.065751 
3404.360240  	0.065359 
3406.289056  	0.065133 
3408.217872  	0.064669 
3410.146688  	0.064120 
3412.075504  	0.063914 
3414.004320  	0.063636 
3415.933136  	0.063127 
3417.861952  	0.062762 
3419.790768  	0.062628 
3421.719584  	0.062318 
3423.648400  	0.061626 
3425.577216  	0.061087 
3427.506032  	0.060773 
3429.434848  	0.060279 
3431.363664  	0.059776 
3433.292480  	0.059414 
3435.221296  	0.059099 
3437.150112  	0.058634 
3439.078928  	0.058172 
3441.007744  	0.057875 
3442.936560  	0.057743 
3444.865376  	0.057341 
3446.794192  	0.056844 
3448.723008  	0.056166 
3450.651824  	0.055272 
3452.580640  	0.054687 
3454.509456  	0.054258 
3456.438272  	0.053773 
3458.367088  	0.053337 
3460.295904  	0.052967 
3462.224720  	0.052262 
3464.153536  	0.051507 
3466.082352  	0.050990 
3468.011168  	0.050631 
3469.939984  	0.050008 
3471.868800  	0.049199 
3473.797616  	0.048564 
3475.726432  	0.047932 
3477.655248  	0.047294 
3479.584064  	0.046934 
3481.512880  	0.046678 
3483.441696  	0.045936 
3485.370512  	0.045112 
3487.299328  	0.044600 
3489.228144  	0.044009 
3491.156960  	0.043024 
3493.085776  	0.042416 
3495.014592  	0.042104 
3496.943408  	0.041728 
3498.872224  	0.041121 
3500.801040  	0.040985 
3502.729856  	0.040846 
3504.658672  	0.040021 
3506.587488  	0.038953 
3508.516304  	0.038698 
3510.445120  	0.038580 
3512.373936  	0.037972 
3514.302752  	0.037200 
3516.231568  	0.036561 
3518.160384  	0.036105 
3520.089200  	0.035839 
3522.018016  	0.035930 
3523.946832  	0.036225 
3525.875648  	0.035615 
3527.804464  	0.034842 
3529.733280  	0.034150 
3531.662096  	0.033322 
3533.590912  	0.032657 
3535.519728  	0.032700 
3537.448544  	0.032493 
3539.377360  	0.031584 
3541.306176  	0.031067 
3543.234992  	0.031272 
3545.163808  	0.032200 
3547.092624  	0.031803 
3549.021440  	0.029884 
3550.950256  	0.029088 
3552.879072  	0.029292 
3554.807888  	0.028638 
3556.736704  	0.027637 
3558.665520  	0.027535 
3560.594336  	0.027775 
3562.523152  	0.027236 
3564.451968  	0.027226 
3566.380784  	0.028678 
3568.309600  	0.028427 
3570.238416  	0.025890 
3572.167232  	0.024034 
3574.096048  	0.023452 
3576.024864  	0.023043 
3577.953680  	0.022648 
3579.882496  	0.022411 
3581.811312  	0.021962 
3583.740128  	0.021380 
3585.668944  	0.021783 
3587.597760  	0.023307 
3589.526576  	0.021949 
3591.455392  	0.019285 
3593.384208  	0.018896 
3595.313024  	0.018922 
3597.241840  	0.017825 
3599.170656  	0.016634 
3601.099472  	0.016092 
3603.028288  	0.015407 
3604.957104  	0.014713 
3606.885920  	0.014822 
3608.814736  	0.015236 
3610.743552  	0.014086 
3612.672368  	0.013273 
3614.601184  	0.012880 
3616.530000  	0.011285 
3618.458816  	0.010594 
3620.387632  	0.010249 
3622.316448  	0.008568 
3624.245264  	0.006893 
3626.174080  	0.005792 
3628.102896  	0.006059 
3630.031712  	0.007294 
3631.960528  	0.005135 
3633.889344  	0.003222 
3635.818160  	0.001621 
3637.746976  	0.000283 
3639.675792  	-0.000404 
3641.604608  	-0.001239 
3643.533424  	-0.002686 
3645.462240  	-0.004281 
3647.391056  	-0.004563 
3649.319872  	-0.004775 
3651.248688  	-0.005384 
3653.177504  	-0.008168 
3655.106320  	-0.010837 
3657.035136  	-0.011870 
3658.963952  	-0.013353 
3660.892768  	-0.014893 
3662.821584  	-0.015727 
3664.750400  	-0.015824 
3666.679216  	-0.016486 
3668.608032  	-0.016901 
3670.536848  	-0.015464 
3672.465664  	-0.015989 
3674.394480  	-0.018492 
3676.323296  	-0.016873 
3678.252112  	-0.014188 
3680.180928  	-0.013496 
3682.109744  	-0.014769 
3684.038560  	-0.015924 
3685.967376  	-0.016683 
3687.896192  	-0.016989 
3689.825008  	-0.015298 
3691.753824  	-0.013926 
3693.682640  	-0.013622 
3695.611456  	-0.013220 
3697.540272  	-0.012078 
3699.469088  	-0.011192 
3701.397904  	-0.009255 
3703.326720  	-0.007550 
3705.255536  	-0.007352 
3707.184352  	-0.007388 
3709.113168  	-0.006939 
3711.041984  	-0.005241 
3712.970800  	-0.003468 
3714.899616  	-0.003258 
3716.828432  	-0.004055 
3718.757248  	-0.004259 
3720.686064  	-0.004082 
3722.614880  	-0.002995 
3724.543696  	-0.002461 
3726.472512  	-0.002389 
3728.401328  	-0.003355 
3730.330144  	-0.005137 
3732.258960  	-0.004562 
3734.187776  	-0.001326 
3736.116592  	0.001021 
3738.045408  	-0.000911 
3739.974224  	-0.002482 
3741.903040  	-0.003175 
3743.831856  	-0.002932 
3745.760672  	-0.000753 
3747.689488  	-0.002825 
3749.618304  	-0.003858 
3751.547120  	-0.002139 
3753.475936  	-0.001058 
3755.404752  	-0.002322 
3757.333568  	-0.003053 
3759.262384  	-0.002781 
3761.191200  	-0.002438 
3763.120016  	-0.003064 
3765.048832  	-0.003013 
3766.977648  	-0.002628 
3768.906464  	-0.003031 
3770.835280  	-0.002422 
3772.764096  	-0.002710 
3774.692912  	-0.003327 
3776.621728  	-0.003898 
3778.550544  	-0.003811 
3780.479360  	-0.003025 
3782.408176  	-0.003370 
3784.336992  	-0.003479 
3786.265808  	-0.003207 
3788.194624  	-0.003473 
3790.123440  	-0.003751 
3792.052256  	-0.003938 
3793.981072  	-0.004332 
3795.909888  	-0.004049 
3797.838704  	-0.003054 
3799.767520  	-0.004053 
3801.696336  	-0.003384 
3803.625152  	-0.002808 
3805.553968  	-0.004378 
3807.482784  	-0.003431 
3809.411600  	-0.002835 
3811.340416  	-0.003351 
3813.269232  	-0.004075 
3815.198048  	-0.004567 
3817.126864  	-0.003159 
3819.055680  	-0.003911 
3820.984496  	-0.003368 
3822.913312  	-0.001999 
3824.842128  	-0.003226 
3826.770944  	-0.003406 
3828.699760  	-0.003609 
3830.628576  	-0.004339 
3832.557392  	-0.003905 
3834.486208  	-0.004080 
3836.415024  	-0.004522 
3838.343840  	-0.003256 
3840.272656  	-0.002141 
3842.201472  	-0.002716 
3844.130288  	-0.003029 
3846.059104  	-0.003275 
3847.987920  	-0.003893 
3849.916736  	-0.004452 
3851.845552  	-0.004830 
3853.774368  	-0.001862 
3855.703184  	-0.000914 
3857.632000  	-0.002417 
3859.560816  	-0.003754 
3861.489632  	-0.003940 
3863.418448  	-0.003232 
3865.347264  	-0.002397 
3867.276080  	-0.003193 
3869.204896  	-0.003146 
3871.133712  	-0.001203 
3873.062528  	-0.002290 
3874.991344  	-0.002266 
3876.920160  	-0.003248 
3878.848976  	-0.003753 
3880.777792  	-0.001939 
3882.706608  	-0.001803 
3884.635424  	-0.002801 
3886.564240  	-0.002113 
3888.493056  	-0.003097 
3890.421872  	-0.003379 
3892.350688  	-0.002054 
3894.279504  	-0.002513 
3896.208320  	-0.003308 
3898.137136  	-0.002776 
3900.065952  	-0.001511 
3901.994768  	-0.001047 
3903.923584  	-0.000668 
3905.852400  	-0.001089 
3907.781216  	-0.002781 
3909.710032  	-0.003770 
3911.638848  	-0.003873 
3913.567664  	-0.003864 
3915.496480  	-0.003115 
3917.425296  	-0.001708 
3919.354112  	-0.001850 
3921.282928  	-0.002354 
3923.211744  	-0.002593 
3925.140560  	-0.002220 
3927.069376  	-0.002913 
3928.998192  	-0.003160 
3930.927008  	-0.002023 
3932.855824  	-0.001307 
3934.784640  	-0.002493 
3936.713456  	-0.003196 
3938.642272  	-0.003085 
3940.571088  	-0.003190 
3942.499904  	-0.002224 
3944.428720  	-0.001918 
3946.357536  	-0.002519 
3948.286352  	-0.002149 
3950.215168  	-0.002435 
3952.143984  	-0.003235 
3954.072800  	-0.003463 
3956.001616  	-0.003290 
3957.930432  	-0.003096 
3959.859248  	-0.002985 
3961.788064  	-0.002861 
3963.716880  	-0.002959 
3965.645696  	-0.003504 
3967.574512  	-0.003516 
3969.503328  	-0.003257 
3971.432144  	-0.003313 
3973.360960  	-0.003415 
3975.289776  	-0.003144 
3977.218592  	-0.003129 
3979.147408  	-0.003303 
3981.076224  	-0.003528 
3983.005040  	-0.003663 
3984.933856  	-0.003664 
3986.862672  	-0.003580 
3988.791488  	-0.003542 
3990.720304  	-0.003435 
3992.649120  	-0.003498 
3994.577936  	-0.003489 
3996.506752  	-0.003555 
3998.435568  	-0.003687 
4000.364384  	-0.003626 