##TITLE=No Description
##DATA TYPE=INFRARED SPECTRUM
##XUNITS=1/CM
##YUNITS=Abs
399.264912  	0.673457 
401.193728  	0.649968 
403.122544  	0.657181 
405.051360  	0.640499 
406.980176  	0.613545 
408.908992  	0.601253 
410.837808  	0.608377 
412.766624  	0.607080 
414.695440  	0.612167 
416.624256  	0.610042 
418.553072  	0.608111 
420.481888  	0.595337 
422.410704  	0.605041 
424.339520  	0.595430 
426.268336  	0.595957 
428.197152  	0.582627 
430.125968  	0.576116 
432.054784  	0.571541 
433.983600  	0.571412 
435.912416  	0.566477 
437.841232  	0.565764 
439.770048  	0.568310 
441.698864  	0.565888 
443.627680  	0.562197 
445.556496  	0.564679 
447.485312  	0.556500 
449.414128  	0.553373 
451.342944  	0.550737 
453.271760  	0.556339 
455.200576  	0.551319 
457.129392  	0.547146 
459.058208  	0.539393 
460.987024  	0.542117 
462.915840  	0.541236 
464.844656  	0.540772 
466.773472  	0.540531 
468.702288  	0.541081 
470.631104  	0.537824 
472.559920  	0.537990 
474.488736  	0.535461 
476.417552  	0.540139 
478.346368  	0.539190 
480.275184  	0.539592 
482.204000  	0.535374 
484.132816  	0.533178 
486.061632  	0.526115 
487.990448  	0.526486 
489.919264  	0.526558 
491.848080  	0.529665 
493.776896  	0.525312 
495.705712  	0.523930 
497.634528  	0.521444 
499.563344  	0.521130 
501.492160  	0.520809 
503.420976  	0.521346 
505.349792  	0.519199 
507.278608  	0.522897 
509.207424  	0.520137 
511.136240  	0.518497 
513.065056  	0.515860 
514.993872  	0.517085 
516.922688  	0.517254 
518.851504  	0.516164 
520.780320  	0.511952 
522.709136  	0.513161 
524.637952  	0.514096 
526.566768  	0.515182 
528.495584  	0.512297 
530.424400  	0.510432 
532.353216  	0.506465 
534.282032  	0.504333 
536.210848  	0.498049 
538.139664  	0.493584 
540.068480  	0.490683 
541.997296  	0.488883 
543.926112  	0.485298 
545.854928  	0.484500 
547.783744  	0.480473 
549.712560  	0.477064 
551.641376  	0.474173 
553.570192  	0.473190 
555.499008  	0.469729 
557.427824  	0.467075 
559.356640  	0.463852 
561.285456  	0.461860 
563.214272  	0.458300 
565.143088  	0.456749 
567.071904  	0.453609 
569.000720  	0.451820 
570.929536  	0.448425 
572.858352  	0.445623 
574.787168  	0.444005 
576.715984  	0.441676 
578.644800  	0.437480 
580.573616  	0.435421 
582.502432  	0.432513 
584.431248  	0.430643 
586.360064  	0.427599 
588.288880  	0.425592 
590.217696  	0.423637 
592.146512  	0.422387 
594.075328  	0.419409 
596.004144  	0.416483 
597.932960  	0.413862 
599.861776  	0.412815 
601.790592  	0.410744 
603.719408  	0.408608 
605.648224  	0.406197 
607.577040  	0.405022 
609.505856  	0.403635 
611.434672  	0.402616 
613.363488  	0.400273 
615.292304  	0.398284 
617.221120  	0.395656 
619.149936  	0.394040 
621.078752  	0.392074 
623.007568  	0.391123 
624.936384  	0.389786 
626.865200  	0.388149 
628.794016  	0.385596 
630.722832  	0.383525 
632.651648  	0.381995 
634.580464  	0.380891 
636.509280  	0.379682 
638.438096  	0.378649 
640.366912  	0.376621 
642.295728  	0.373952 
644.224544  	0.371196 
646.153360  	0.368603 
648.082176  	0.365233 
650.010992  	0.362892 
651.939808  	0.359447 
653.868624  	0.356137 
655.797440  	0.352628 
657.726256  	0.349723 
659.655072  	0.346333 
661.583888  	0.343423 
663.512704  	0.340487 
665.441520  	0.338171 
667.370336  	0.332952 
669.299152  	0.328790 
671.227968  	0.328322 
673.156784  	0.325961 
675.085600  	0.323127 
677.014416  	0.321191 
678.943232  	0.319100 
680.872048  	0.316367 
682.800864  	0.313766 
684.729680  	0.312479 
686.658496  	0.310997 
688.587312  	0.308995 
690.516128  	0.306363 
692.444944  	0.304993 
694.373760  	0.303492 
696.302576  	0.301845 
698.231392  	0.299472 
700.160208  	0.296978 
702.089024  	0.294205 
704.017840  	0.292386 
705.946656  	0.289144 
707.875472  	0.286008 
709.804288  	0.284048 
711.733104  	0.282571 
713.661920  	0.280135 
715.590736  	0.278313 
717.519552  	0.276683 
719.448368  	0.275648 
721.377184  	0.274764 
723.306000  	0.274131 
725.234816  	0.272896 
727.163632  	0.271251 
729.092448  	0.268924 
731.021264  	0.266555 
732.950080  	0.263934 
734.878896  	0.261413 
736.807712  	0.258576 
738.736528  	0.256760 
740.665344  	0.255074 
742.594160  	0.253396 
744.522976  	0.251461 
746.451792  	0.249646 
748.380608  	0.247875 
750.309424  	0.246376 
752.238240  	0.244898 
754.167056  	0.243642 
756.095872  	0.241669 
758.024688  	0.239593 
759.953504  	0.237964 
761.882320  	0.236876 
763.811136  	0.235365 
765.739952  	0.233687 
767.668768  	0.231763 
769.597584  	0.229483 
771.526400  	0.227658 
773.455216  	0.227392 
775.384032  	0.227277 
777.312848  	0.227259 
779.241664  	0.227476 
781.170480  	0.226846 
783.099296  	0.224429 
785.028112  	0.221249 
786.956928  	0.217042 
788.885744  	0.213182 
790.814560  	0.209767 
792.743376  	0.207264 
794.672192  	0.205058 
796.601008  	0.203446 
798.529824  	0.201404 
800.458640  	0.198181 
802.387456  	0.194997 
804.316272  	0.192962 
806.245088  	0.191138 
808.173904  	0.189658 
810.102720  	0.188394 
812.031536  	0.186978 
813.960352  	0.185411 
815.889168  	0.184094 
817.817984  	0.182695 
819.746800  	0.181318 
821.675616  	0.179841 
823.604432  	0.178535 
825.533248  	0.176656 
827.462064  	0.174800 
829.390880  	0.173164 
831.319696  	0.171350 
833.248512  	0.169353 
835.177328  	0.167619 
837.106144  	0.165457 
839.034960  	0.163026 
840.963776  	0.160486 
842.892592  	0.157949 
844.821408  	0.155265 
846.750224  	0.152703 
848.679040  	0.150419 
850.607856  	0.148192 
852.536672  	0.145886 
854.465488  	0.143457 
856.394304  	0.141214 
858.323120  	0.138814 
860.251936  	0.136249 
862.180752  	0.133518 
864.109568  	0.130917 
866.038384  	0.128449 
867.967200  	0.126324 
869.896016  	0.124620 
871.824832  	0.123179 
873.753648  	0.122517 
875.682464  	0.122312 
877.611280  	0.120460 
879.540096  	0.118259 
881.468912  	0.119055 
883.397728  	0.119205 
885.326544  	0.119150 
887.255360  	0.118374 
889.184176  	0.116455 
891.112992  	0.113619 
893.041808  	0.112288 
894.970624  	0.111541 
896.899440  	0.109913 
898.828256  	0.107792 
900.757072  	0.106021 
902.685888  	0.104899 
904.614704  	0.104754 
906.543520  	0.105217 
908.472336  	0.106283 
910.401152  	0.107667 
912.329968  	0.109322 
914.258784  	0.110911 
916.187600  	0.112298 
918.116416  	0.113178 
920.045232  	0.113515 
921.974048  	0.113022 
923.902864  	0.112260 
925.831680  	0.111595 
927.760496  	0.110790 
929.689312  	0.109876 
931.618128  	0.109350 
933.546944  	0.108999 
935.475760  	0.108379 
937.404576  	0.107703 
939.333392  	0.107436 
941.262208  	0.107455 
943.191024  	0.107886 
945.119840  	0.108800 
947.048656  	0.110096 
948.977472  	0.112121 
950.906288  	0.114628 
952.835104  	0.117198 
954.763920  	0.119712 
956.692736  	0.122195 
958.621552  	0.124306 
960.550368  	0.125309 
962.479184  	0.125241 
964.408000  	0.124086 
966.336816  	0.121734 
968.265632  	0.117765 
970.194448  	0.113003 
972.123264  	0.107598 
974.052080  	0.101725 
975.980896  	0.096006 
977.909712  	0.090589 
979.838528  	0.085756 
981.767344  	0.081600 
983.696160  	0.078317 
985.624976  	0.076058 
987.553792  	0.074670 
989.482608  	0.074068 
991.411424  	0.074296 
993.340240  	0.075318 
995.269056  	0.077091 
997.197872  	0.078917 
999.126688  	0.080251 
1001.055504  	0.081608 
1002.984320  	0.082713 
1004.913136  	0.083596 
1006.841952  	0.084288 
1008.770768  	0.084701 
1010.699584  	0.084369 
1012.628400  	0.083410 
1014.557216  	0.082068 
1016.486032  	0.081062 
1018.414848  	0.080365 
1020.343664  	0.080005 
1022.272480  	0.079272 
1024.201296  	0.076848 
1026.130112  	0.069285 
1028.058928  	0.065608 
1029.987744  	0.070781 
1031.916560  	0.070913 
1033.845376  	0.066738 
1035.774192  	0.060079 
1037.703008  	0.054622 
1039.631824  	0.054299 
1041.560640  	0.054288 
1043.489456  	0.054684 
1045.418272  	0.056718 
1047.347088  	0.060766 
1049.275904  	0.066023 
1051.204720  	0.071299 
1053.133536  	0.077251 
1055.062352  	0.081826 
1056.991168  	0.083116 
1058.919984  	0.089564 
1060.848800  	0.097669 
1062.777616  	0.096776 
1064.706432  	0.087319 
1066.635248  	0.082388 
1068.564064  	0.090146 
1070.492880  	0.092387 
1072.421696  	0.087508 
1074.350512  	0.082728 
1076.279328  	0.080893 
1078.208144  	0.081927 
1080.136960  	0.085757 
1082.065776  	0.090712 
1083.994592  	0.096142 
1085.923408  	0.101161 
1087.852224  	0.105362 
1089.781040  	0.109408 
1091.709856  	0.114003 
1093.638672  	0.115005 
1095.567488  	0.112609 
1097.496304  	0.109272 
1099.425120  	0.105297 
1101.353936  	0.100967 
1103.282752  	0.096772 
1105.211568  	0.092637 
1107.140384  	0.088924 
1109.069200  	0.085420 
1110.998016  	0.082468 
1112.926832  	0.079708 
1114.855648  	0.076811 
1116.784464  	0.073696 
1118.713280  	0.070660 
1120.642096  	0.067981 
1122.570912  	0.065114 
1124.499728  	0.062108 
1126.428544  	0.059238 
1128.357360  	0.056409 
1130.286176  	0.053846 
1132.214992  	0.051877 
1134.143808  	0.050226 
1136.072624  	0.048588 
1138.001440  	0.046946 
1139.930256  	0.045171 
1141.859072  	0.043889 
1143.787888  	0.042523 
1145.716704  	0.041395 
1147.645520  	0.040600 
1149.574336  	0.039744 
1151.503152  	0.038716 
1153.431968  	0.038162 
1155.360784  	0.038068 
1157.289600  	0.038196 
1159.218416  	0.038309 
1161.147232  	0.038821 
1163.076048  	0.039404 
1165.004864  	0.040090 
1166.933680  	0.040480 
1168.862496  	0.041233 
1170.791312  	0.042311 
1172.720128  	0.043224 
1174.648944  	0.043884 
1176.577760  	0.044671 
1178.506576  	0.045578 
1180.435392  	0.046542 
1182.364208  	0.047285 
1184.293024  	0.048148 
1186.221840  	0.048925 
1188.150656  	0.049888 
1190.079472  	0.051209 
1192.008288  	0.053001 
1193.937104  	0.054934 
1195.865920  	0.057204 
1197.794736  	0.059461 
1199.723552  	0.062389 
1201.652368  	0.065426 
1203.581184  	0.068471 
1205.510000  	0.071180 
1207.438816  	0.074023 
1209.367632  	0.076646 
1211.296448  	0.079172 
1213.225264  	0.081129 
1215.154080  	0.082644 
1217.082896  	0.083404 
1219.011712  	0.083773 
1220.940528  	0.083942 
1222.869344  	0.083979 
1224.798160  	0.083786 
1226.726976  	0.083636 
1228.655792  	0.083793 
1230.584608  	0.084229 
1232.513424  	0.084784 
1234.442240  	0.085422 
1236.371056  	0.085679 
1238.299872  	0.085017 
1240.228688  	0.079721 
1242.157504  	0.075549 
1244.086320  	0.075284 
1246.015136  	0.071707 
1247.943952  	0.065949 
1249.872768  	0.060717 
1251.801584  	0.057818 
1253.730400  	0.054988 
1255.659216  	0.052005 
1257.588032  	0.049209 
1259.516848  	0.046807 
1261.445664  	0.044859 
1263.374480  	0.043304 
1265.303296  	0.041903 
1267.232112  	0.041157 
1269.160928  	0.040955 
1271.089744  	0.040869 
1273.018560  	0.040895 
1274.947376  	0.041064 
1276.876192  	0.041102 
1278.805008  	0.041018 
1280.733824  	0.040621 
1282.662640  	0.039562 
1284.591456  	0.037929 
1286.520272  	0.036404 
1288.449088  	0.035151 
1290.377904  	0.033972 
1292.306720  	0.033269 
1294.235536  	0.032419 
1296.164352  	0.031059 
1298.093168  	0.029381 
1300.021984  	0.027608 
1301.950800  	0.025787 
1303.879616  	0.024156 
1305.808432  	0.022820 
1307.737248  	0.021866 
1309.666064  	0.020849 
1311.594880  	0.020457 
1313.523696  	0.020272 
1315.452512  	0.019862 
1317.381328  	0.019983 
1319.310144  	0.020172 
1321.238960  	0.019988 
1323.167776  	0.019991 
1325.096592  	0.020238 
1327.025408  	0.020437 
1328.954224  	0.020250 
1330.883040  	0.019776 
1332.811856  	0.019100 
1334.740672  	0.018861 
1336.669488  	0.019211 
1338.598304  	0.020052 
1340.527120  	0.019353 
1342.455936  	0.017188 
1344.384752  	0.016348 
1346.313568  	0.016355 
1348.242384  	0.016679 
1350.171200  	0.017177 
1352.100016  	0.017695 
1354.028832  	0.018350 
1355.957648  	0.018985 
1357.886464  	0.019519 
1359.815280  	0.020375 
1361.744096  	0.021787 
1363.672912  	0.021431 
1365.601728  	0.019329 
1367.530544  	0.018359 
1369.459360  	0.017124 
1371.388176  	0.015100 
1373.316992  	0.013570 
1375.245808  	0.010757 
1377.174624  	0.007436 
1379.103440  	0.004712 
1381.032256  	0.002343 
1382.961072  	0.001068 
1384.889888  	0.001583 
1386.818704  	0.003744 
1388.747520  	0.003944 
1390.676336  	0.000514 
1392.605152  	-0.006410 
1394.533968  	-0.007722 
1396.462784  	0.000314 
1398.391600  	0.002776 
1400.320416  	0.000447 
1402.249232  	-0.002285 
1404.178048  	-0.002869 
1406.106864  	-0.003076 
1408.035680  	-0.002198 
1409.964496  	0.000403 
1411.893312  	0.003969 
1413.822128  	0.007531 
1415.750944  	0.012133 
1417.679760  	0.016331 
1419.608576  	0.018409 
1421.537392  	0.018328 
1423.466208  	0.019262 
1425.395024  	0.019111 
1427.323840  	0.018380 
1429.252656  	0.018354 
1431.181472  	0.018057 
1433.110288  	0.017691 
1435.039104  	0.018287 
1436.967920  	0.018928 
1438.896736  	0.018042 
1440.825552  	0.017761 
1442.754368  	0.018119 
1444.683184  	0.018191 
1446.612000  	0.018460 
1448.540816  	0.017612 
1450.469632  	0.016704 
1452.398448  	0.017095 
1454.327264  	0.018338 
1456.256080  	0.021636 
1458.184896  	0.023377 
1460.113712  	0.021930 
1462.042528  	0.021340 
1463.971344  	0.022049 
1465.900160  	0.023342 
1467.828976  	0.024196 
1469.757792  	0.025712 
1471.686608  	0.028997 
1473.615424  	0.032551 
1475.544240  	0.033996 
1477.473056  	0.034704 
1479.401872  	0.034794 
1481.330688  	0.035749 
1483.259504  	0.036218 
1485.188320  	0.036737 
1487.117136  	0.037393 
1489.045952  	0.038199 
1490.974768  	0.036083 
1492.903584  	0.032864 
1494.832400  	0.031318 
1496.761216  	0.030201 
1498.690032  	0.028256 
1500.618848  	0.026587 
1502.547664  	0.024868 
1504.476480  	0.023648 
1506.405296  	0.026120 
1508.334112  	0.027958 
1510.262928  	0.025079 
1512.191744  	0.022892 
1514.120560  	0.022168 
1516.049376  	0.023338 
1517.978192  	0.023356 
1519.907008  	0.023544 
1521.835824  	0.025253 
1523.764640  	0.026076 
1525.693456  	0.027756 
1527.622272  	0.028686 
1529.551088  	0.028383 
1531.479904  	0.028635 
1533.408720  	0.029004 
1535.337536  	0.027722 
1537.266352  	0.025922 
1539.195168  	0.024561 
1541.123984  	0.024433 
1543.052800  	0.024992 
1544.981616  	0.024229 
1546.910432  	0.021765 
1548.839248  	0.021544 
1550.768064  	0.021950 
1552.696880  	0.021002 
1554.625696  	0.021630 
1556.554512  	0.021422 
1558.483328  	0.022895 
1560.412144  	0.024838 
1562.340960  	0.024722 
1564.269776  	0.025477 
1566.198592  	0.027436 
1568.127408  	0.029278 
1570.056224  	0.032327 
1571.985040  	0.034113 
1573.913856  	0.035049 
1575.842672  	0.036189 
1577.771488  	0.037754 
1579.700304  	0.037515 
1581.629120  	0.037287 
1583.557936  	0.037223 
1585.486752  	0.037882 
1587.415568  	0.039144 
1589.344384  	0.041297 
1591.273200  	0.043722 
1593.202016  	0.046765 
1595.130832  	0.049769 
1597.059648  	0.052659 
1598.988464  	0.054969 
1600.917280  	0.057135 
1602.846096  	0.058527 
1604.774912  	0.059318 
1606.703728  	0.059345 
1608.632544  	0.059162 
1610.561360  	0.058464 
1612.490176  	0.057988 
1614.418992  	0.057433 
1616.347808  	0.057671 
1618.276624  	0.059063 
1620.205440  	0.061079 
1622.134256  	0.063211 
1624.063072  	0.066652 
1625.991888  	0.069661 
1627.920704  	0.073590 
1629.849520  	0.077737 
1631.778336  	0.081795 
1633.707152  	0.085486 
1635.635968  	0.090914 
1637.564784  	0.095789 
1639.493600  	0.098676 
1641.422416  	0.101239 
1643.351232  	0.103664 
1645.280048  	0.105559 
1647.208864  	0.107902 
1649.137680  	0.108346 
1651.066496  	0.108071 
1652.995312  	0.107880 
1654.924128  	0.108493 
1656.852944  	0.107095 
1658.781760  	0.105898 
1660.710576  	0.105135 
1662.639392  	0.104346 
1664.568208  	0.103163 
1666.497024  	0.102545 
1668.425840  	0.101970 
1670.354656  	0.101147 
1672.283472  	0.100231 
1674.212288  	0.099865 
1676.141104  	0.099636 
1678.069920  	0.100008 
1679.998736  	0.101228 
1681.927552  	0.101834 
1683.856368  	0.102016 
1685.785184  	0.101960 
1687.714000  	0.102091 
1689.642816  	0.101793 
1691.571632  	0.100500 
1693.500448  	0.099665 
1695.429264  	0.098705 
1697.358080  	0.097675 
1699.286896  	0.095848 
1701.215712  	0.092843 
1703.144528  	0.090582 
1705.073344  	0.087893 
1707.002160  	0.084154 
1708.930976  	0.080890 
1710.859792  	0.077495 
1712.788608  	0.074153 
1714.717424  	0.070895 
1716.646240  	0.066782 
1718.575056  	0.061012 
1720.503872  	0.055390 
1722.432688  	0.051258 
1724.361504  	0.046611 
1726.290320  	0.042211 
1728.219136  	0.038923 
1730.147952  	0.036384 
1732.076768  	0.033389 
1734.005584  	0.030295 
1735.934400  	0.025857 
1737.863216  	0.023160 
1739.792032  	0.020446 
1741.720848  	0.018985 
1743.649664  	0.017946 
1745.578480  	0.015985 
1747.507296  	0.014496 
1749.436112  	0.014220 
1751.364928  	0.013387 
1753.293744  	0.011332 
1755.222560  	0.009935 
1757.151376  	0.009894 
1759.080192  	0.008935 
1761.009008  	0.008640 
1762.937824  	0.008146 
1764.866640  	0.007319 
1766.795456  	0.007323 
1768.724272  	0.007808 
1770.653088  	0.006730 
1772.581904  	0.006569 
1774.510720  	0.006578 
1776.439536  	0.006409 
1778.368352  	0.006108 
1780.297168  	0.006583 
1782.225984  	0.006232 
1784.154800  	0.006089 
1786.083616  	0.005896 
1788.012432  	0.005427 
1789.941248  	0.005741 
1791.870064  	0.006485 
1793.798880  	0.006029 
1795.727696  	0.005905 
1797.656512  	0.005344 
1799.585328  	0.005238 
1801.514144  	0.005680 
1803.442960  	0.005046 
1805.371776  	0.004275 
1807.300592  	0.004424 
1809.229408  	0.004293 
1811.158224  	0.004542 
1813.087040  	0.004186 
1815.015856  	0.003622 
1816.944672  	0.003686 
1818.873488  	0.003923 
1820.802304  	0.003942 
1822.731120  	0.004277 
1824.659936  	0.004725 
1826.588752  	0.004533 
1828.517568  	0.004197 
1830.446384  	0.004858 
1832.375200  	0.004420 
1834.304016  	0.003888 
1836.232832  	0.003743 
1838.161648  	0.004083 
1840.090464  	0.003821 
1842.019280  	0.003921 
1843.948096  	0.004237 
1845.876912  	0.004536 
1847.805728  	0.004235 
1849.734544  	0.003844 
1851.663360  	0.003428 
1853.592176  	0.003590 
1855.520992  	0.003499 
1857.449808  	0.003789 
1859.378624  	0.003724 
1861.307440  	0.003399 
1863.236256  	0.002998 
1865.165072  	0.003281 
1867.093888  	0.004085 
1869.022704  	0.005225 
1870.951520  	0.004488 
1872.880336  	0.003608 
1874.809152  	0.002960 
1876.737968  	0.002911 
1878.666784  	0.002698 
1880.595600  	0.002705 
1882.524416  	0.002735 
1884.453232  	0.002625 
1886.382048  	0.002402 
1888.310864  	0.002679 
1890.239680  	0.003126 
1892.168496  	0.003026 
1894.097312  	0.002607 
1896.026128  	0.002928 
1897.954944  	0.002607 
1899.883760  	0.002201 
1901.812576  	0.001942 
1903.741392  	0.001989 
1905.670208  	0.001745 
1907.599024  	0.001908 
1909.527840  	0.002017 
1911.456656  	0.002011 
1913.385472  	0.001948 
1915.314288  	0.002300 
1917.243104  	0.002737 
1919.171920  	0.002378 
1921.100736  	0.002344 
1923.029552  	0.003310 
1924.958368  	0.002124 
1926.887184  	0.002015 
1928.816000  	0.001663 
1930.744816  	0.001008 
1932.673632  	0.000705 
1934.602448  	0.001403 
1936.531264  	0.001961 
1938.460080  	0.002019 
1940.388896  	0.002202 
1942.317712  	0.002665 
1944.246528  	0.002145 
1946.175344  	0.002430 
1948.104160  	0.002149 
1950.032976  	0.002063 
1951.961792  	0.002306 
1953.890608  	0.002669 
1955.819424  	0.002234 
1957.748240  	0.002414 
1959.677056  	0.002356 
1961.605872  	0.002490 
1963.534688  	0.001843 
1965.463504  	0.002872 
1967.392320  	0.003271 
1969.321136  	0.003415 
1971.249952  	0.003228 
1973.178768  	0.004096 
1975.107584  	0.003401 
1977.036400  	0.003706 
1978.965216  	0.005415 
1980.894032  	0.004785 
1982.822848  	0.003221 
1984.751664  	0.003582 
1986.680480  	0.004399 
1988.609296  	0.004618 
1990.538112  	0.004013 
1992.466928  	0.003752 
1994.395744  	0.002619 
1996.324560  	0.002645 
1998.253376  	0.002783 
2000.182192  	0.003048 
2002.111008  	0.003215 
2004.039824  	0.003533 
2005.968640  	0.002532 
2007.897456  	0.002659 
2009.826272  	0.002702 
2011.755088  	0.002541 
2013.683904  	0.002767 
2015.612720  	0.003922 
2017.541536  	0.004036 
2019.470352  	0.004001 
2021.399168  	0.003478 
2023.327984  	0.003947 
2025.256800  	0.003934 
2027.185616  	0.003540 
2029.114432  	0.003346 
2031.043248  	0.004655 
2032.972064  	0.004669 
2034.900880  	0.004898 
2036.829696  	0.004244 
2038.758512  	0.003324 
2040.687328  	0.003410 
2042.616144  	0.003048 
2044.544960  	0.002690 
2046.473776  	0.003613 
2048.402592  	0.004251 
2050.331408  	0.005234 
2052.260224  	0.004557 
2054.189040  	0.004030 
2056.117856  	0.002927 
2058.046672  	0.002726 
2059.975488  	0.003245 
2061.904304  	0.003855 
2063.833120  	0.004748 
2065.761936  	0.004732 
2067.690752  	0.003896 
2069.619568  	0.003433 
2071.548384  	0.002561 
2073.477200  	0.002618 
2075.406016  	0.003644 
2077.334832  	0.004030 
2079.263648  	0.003203 
2081.192464  	0.003011 
2083.121280  	0.003600 
2085.050096  	0.003860 
2086.978912  	0.003476 
2088.907728  	0.002999 
2090.836544  	0.002512 
2092.765360  	0.002448 
2094.694176  	0.002426 
2096.622992  	0.002477 
2098.551808  	0.002526 
2100.480624  	0.002611 
2102.409440  	0.002247 
2104.338256  	0.002806 
2106.267072  	0.002999 
2108.195888  	0.002782 
2110.124704  	0.003432 
2112.053520  	0.003805 
2113.982336  	0.003523 
2115.911152  	0.003910 
2117.839968  	0.003456 
2119.768784  	0.002739 
2121.697600  	0.002601 
2123.626416  	0.002270 
2125.555232  	0.001870 
2127.484048  	0.001911 
2129.412864  	0.001491 
2131.341680  	0.000628 
2133.270496  	0.001096 
2135.199312  	0.002335 
2137.128128  	0.003194 
2139.056944  	0.002972 
2140.985760  	0.001732 
2142.914576  	0.002100 
2144.843392  	0.002329 
2146.772208  	0.002601 
2148.701024  	0.002257 
2150.629840  	0.002548 
2152.558656  	0.001683 
2154.487472  	-0.000043 
2156.416288  	-0.000501 
2158.345104  	0.002734 
2160.273920  	0.005810 
2162.202736  	0.006865 
2164.131552  	0.005854 
2166.060368  	0.005936 
2167.989184  	0.004752 
2169.918000  	0.003686 
2171.846816  	0.003445 
2173.775632  	0.004072 
2175.704448  	0.004982 
2177.633264  	0.005404 
2179.562080  	0.005039 
2181.490896  	0.004397 
2183.419712  	0.004251 
2185.348528  	0.004741 
2187.277344  	0.004318 
2189.206160  	0.004438 
2191.134976  	0.005253 
2193.063792  	0.006480 
2194.992608  	0.006562 
2196.921424  	0.005533 
2198.850240  	0.005478 
2200.779056  	0.005768 
2202.707872  	0.005464 
2204.636688  	0.004745 
2206.565504  	0.004362 
2208.494320  	0.004987 
2210.423136  	0.003968 
2212.351952  	0.003732 
2214.280768  	0.004363 
2216.209584  	0.003936 
2218.138400  	0.003873 
2220.067216  	0.004384 
2221.996032  	0.004355 
2223.924848  	0.003834 
2225.853664  	0.003969 
2227.782480  	0.004541 
2229.711296  	0.004917 
2231.640112  	0.004880 
2233.568928  	0.004285 
2235.497744  	0.003923 
2237.426560  	0.003786 
2239.355376  	0.003760 
2241.284192  	0.003292 
2243.213008  	0.003393 
2245.141824  	0.003565 
2247.070640  	0.003134 
2248.999456  	0.003061 
2250.928272  	0.003321 
2252.857088  	0.002919 
2254.785904  	0.002608 
2256.714720  	0.003387 
2258.643536  	0.003888 
2260.572352  	0.003351 
2262.501168  	0.003222 
2264.429984  	0.003219 
2266.358800  	0.003479 
2268.287616  	0.003388 
2270.216432  	0.003505 
2272.145248  	0.003462 
2274.074064  	0.003418 
2276.002880  	0.003359 
2277.931696  	0.003890 
2279.860512  	0.004332 
2281.789328  	0.004407 
2283.718144  	0.004617 
2285.646960  	0.004868 
2287.575776  	0.004863 
2289.504592  	0.004458 
2291.433408  	0.004087 
2293.362224  	0.004088 
2295.291040  	0.004053 
2297.219856  	0.004186 
2299.148672  	0.004137 
2301.077488  	0.004089 
2303.006304  	0.004207 
2304.935120  	0.004063 
2306.863936  	0.003666 
2308.792752  	0.003294 
2310.721568  	0.003063 
2312.650384  	0.002820 
2314.579200  	0.002078 
2316.508016  	0.001393 
2318.436832  	0.000419 
2320.365648  	-0.000558 
2322.294464  	-0.001448 
2324.223280  	-0.002934 
2326.152096  	-0.005125 
2328.080912  	-0.006744 
2330.009728  	-0.007893 
2331.938544  	-0.008900 
2333.867360  	-0.010318 
2335.796176  	-0.011338 
2337.724992  	-0.012046 
2339.653808  	-0.012464 
2341.582624  	-0.012255 
2343.511440  	-0.010628 
2345.440256  	-0.007908 
2347.369072  	-0.004490 
2349.297888  	-0.003885 
2351.226704  	-0.006846 
2353.155520  	-0.010634 
2355.084336  	-0.014287 
2357.013152  	-0.016743 
2358.941968  	-0.018163 
2360.870784  	-0.019097 
2362.799600  	-0.018371 
2364.728416  	-0.016531 
2366.657232  	-0.014240 
2368.586048  	-0.011738 
2370.514864  	-0.008368 
2372.443680  	-0.005434 
2374.372496  	-0.002687 
2376.301312  	-0.000192 
2378.230128  	0.001803 
2380.158944  	0.002793 
2382.087760  	0.003180 
2384.016576  	0.003373 
2385.945392  	0.003479 
2387.874208  	0.003212 
2389.803024  	0.002999 
2391.731840  	0.002742 
2393.660656  	0.002668 
2395.589472  	0.002803 
2397.518288  	0.002960 
2399.447104  	0.002954 
2401.375920  	0.002912 
2403.304736  	0.002965 
2405.233552  	0.003044 
2407.162368  	0.003249 
2409.091184  	0.003105 
2411.020000  	0.002863 
2412.948816  	0.003072 
2414.877632  	0.003171 
2416.806448  	0.003355 
2418.735264  	0.003484 
2420.664080  	0.003347 
2422.592896  	0.003027 
2424.521712  	0.002966 
2426.450528  	0.003166 
2428.379344  	0.003191 
2430.308160  	0.003218 
2432.236976  	0.003327 
2434.165792  	0.003564 
2436.094608  	0.003963 
2438.023424  	0.004165 
2439.952240  	0.004102 
2441.881056  	0.003935 
2443.809872  	0.003780 
2445.738688  	0.003853 
2447.667504  	0.004089 
2449.596320  	0.004127 
2451.525136  	0.004103 
2453.453952  	0.004173 
2455.382768  	0.004305 
2457.311584  	0.004386 
2459.240400  	0.004430 
2461.169216  	0.004359 
2463.098032  	0.004185 
2465.026848  	0.004104 
2466.955664  	0.003956 
2468.884480  	0.003702 
2470.813296  	0.003734 
2472.742112  	0.003856 
2474.670928  	0.003933 
2476.599744  	0.003945 
2478.528560  	0.003957 
2480.457376  	0.004106 
2482.386192  	0.004123 
2484.315008  	0.004095 
2486.243824  	0.004182 
2488.172640  	0.004064 
2490.101456  	0.004163 
2492.030272  	0.004538 
2493.959088  	0.004539 
2495.887904  	0.004238 
2497.816720  	0.004287 
2499.745536  	0.004425 
2501.674352  	0.004401 
2503.603168  	0.004489 
2505.531984  	0.004728 
2507.460800  	0.004834 
2509.389616  	0.004629 
2511.318432  	0.004429 
2513.247248  	0.004546 
2515.176064  	0.004549 
2517.104880  	0.004848 
2519.033696  	0.005063 
2520.962512  	0.005052 
2522.891328  	0.005157 
2524.820144  	0.005181 
2526.748960  	0.005097 
2528.677776  	0.005275 
2530.606592  	0.005237 
2532.535408  	0.005273 
2534.464224  	0.005538 
2536.393040  	0.005434 
2538.321856  	0.005206 
2540.250672  	0.005236 
2542.179488  	0.005407 
2544.108304  	0.005594 
2546.037120  	0.005457 
2547.965936  	0.005717 
2549.894752  	0.005856 
2551.823568  	0.005725 
2553.752384  	0.005809 
2555.681200  	0.005991 
2557.610016  	0.005952 
2559.538832  	0.005969 
2561.467648  	0.006038 
2563.396464  	0.006311 
2565.325280  	0.006509 
2567.254096  	0.006296 
2569.182912  	0.005995 
2571.111728  	0.005962 
2573.040544  	0.005854 
2574.969360  	0.005849 
2576.898176  	0.006112 
2578.826992  	0.006425 
2580.755808  	0.006402 
2582.684624  	0.006307 
2584.613440  	0.006164 
2586.542256  	0.006366 
2588.471072  	0.006487 
2590.399888  	0.006362 
2592.328704  	0.006416 
2594.257520  	0.006689 
2596.186336  	0.006916 
2598.115152  	0.006869 
2600.043968  	0.006563 
2601.972784  	0.006593 
2603.901600  	0.006788 
2605.830416  	0.006961 
2607.759232  	0.006896 
2609.688048  	0.006865 
2611.616864  	0.006871 
2613.545680  	0.006978 
2615.474496  	0.006978 
2617.403312  	0.006931 
2619.332128  	0.006984 
2621.260944  	0.007088 
2623.189760  	0.007111 
2625.118576  	0.007093 
2627.047392  	0.007245 
2628.976208  	0.007432 
2630.905024  	0.007395 
2632.833840  	0.007472 
2634.762656  	0.007612 
2636.691472  	0.007567 
2638.620288  	0.007565 
2640.549104  	0.007650 
2642.477920  	0.007641 
2644.406736  	0.007605 
2646.335552  	0.007728 
2648.264368  	0.007836 
2650.193184  	0.007880 
2652.122000  	0.008010 
2654.050816  	0.008104 
2655.979632  	0.007882 
2657.908448  	0.007843 
2659.837264  	0.007899 
2661.766080  	0.007750 
2663.694896  	0.007683 
2665.623712  	0.007618 
2667.552528  	0.007515 
2669.481344  	0.007658 
2671.410160  	0.007855 
2673.338976  	0.007975 
2675.267792  	0.008094 
2677.196608  	0.008143 
2679.125424  	0.008222 
2681.054240  	0.008154 
2682.983056  	0.008134 
2684.911872  	0.008272 
2686.840688  	0.008390 
2688.769504  	0.008446 
2690.698320  	0.008413 
2692.627136  	0.008421 
2694.555952  	0.008398 
2696.484768  	0.008321 
2698.413584  	0.008352 
2700.342400  	0.008375 
2702.271216  	0.008484 
2704.200032  	0.008594 
2706.128848  	0.008567 
2708.057664  	0.008558 
2709.986480  	0.008572 
2711.915296  	0.008571 
2713.844112  	0.008510 
2715.772928  	0.008536 
2717.701744  	0.008593 
2719.630560  	0.008538 
2721.559376  	0.008537 
2723.488192  	0.008659 
2725.417008  	0.008825 
2727.345824  	0.008758 
2729.274640  	0.008673 
2731.203456  	0.008682 
2733.132272  	0.008701 
2735.061088  	0.008641 
2736.989904  	0.008625 
2738.918720  	0.008512 
2740.847536  	0.008355 
2742.776352  	0.008348 
2744.705168  	0.008460 
2746.633984  	0.008427 
2748.562800  	0.008472 
2750.491616  	0.008576 
2752.420432  	0.008537 
2754.349248  	0.008484 
2756.278064  	0.008482 
2758.206880  	0.008327 
2760.135696  	0.008360 
2762.064512  	0.008387 
2763.993328  	0.008343 
2765.922144  	0.008381 
2767.850960  	0.008373 
2769.779776  	0.008353 
2771.708592  	0.008327 
2773.637408  	0.008195 
2775.566224  	0.008171 
2777.495040  	0.008066 
2779.423856  	0.007974 
2781.352672  	0.008060 
2783.281488  	0.008101 
2785.210304  	0.008021 
2787.139120  	0.008042 
2789.067936  	0.008060 
2790.996752  	0.007949 
2792.925568  	0.007844 
2794.854384  	0.007812 
2796.783200  	0.007792 
2798.712016  	0.007633 
2800.640832  	0.007483 
2802.569648  	0.007558 
2804.498464  	0.007611 
2806.427280  	0.007583 
2808.356096  	0.007581 
2810.284912  	0.007676 
2812.213728  	0.007508 
2814.142544  	0.007234 
2816.071360  	0.007124 
2818.000176  	0.006881 
2819.928992  	0.006579 
2821.857808  	0.006366 
2823.786624  	0.006171 
2825.715440  	0.006031 
2827.644256  	0.005777 
2829.573072  	0.005488 
2831.501888  	0.005047 
2833.430704  	0.004547 
2835.359520  	0.004022 
2837.288336  	0.003354 
2839.217152  	0.002641 
2841.145968  	0.002061 
2843.074784  	0.001517 
2845.003600  	0.001097 
2846.932416  	0.000785 
2848.861232  	0.000294 
2850.790048  	-0.000818 
2852.718864  	-0.002415 
2854.647680  	-0.004220 
2856.576496  	-0.005959 
2858.505312  	-0.007761 
2860.434128  	-0.009734 
2862.362944  	-0.011976 
2864.291760  	-0.014353 
2866.220576  	-0.016420 
2868.149392  	-0.017744 
2870.078208  	-0.018611 
2872.007024  	-0.019418 
2873.935840  	-0.020190 
2875.864656  	-0.021120 
2877.793472  	-0.022472 
2879.722288  	-0.024262 
2881.651104  	-0.026541 
2883.579920  	-0.028332 
2885.508736  	-0.028911 
2887.437552  	-0.028614 
2889.366368  	-0.028732 
2891.295184  	-0.029698 
2893.224000  	-0.030467 
2895.152816  	-0.030509 
2897.081632  	-0.031421 
2899.010448  	-0.035595 
2900.939264  	-0.039275 
2902.868080  	-0.036328 
2904.796896  	-0.033098 
2906.725712  	-0.031968 
2908.654528  	-0.031210 
2910.583344  	-0.030752 
2912.512160  	-0.028955 
2914.440976  	-0.026019 
2916.369792  	-0.024181 
2918.298608  	-0.023579 
2920.227424  	-0.023504 
2922.156240  	-0.023211 
2924.085056  	-0.022572 
2926.013872  	-0.021910 
2927.942688  	-0.021252 
2929.871504  	-0.020387 
2931.800320  	-0.019704 
2933.729136  	-0.019485 
2935.657952  	-0.019520 
2937.586768  	-0.019351 
2939.515584  	-0.019432 
2941.444400  	-0.019981 
2943.373216  	-0.020620 
2945.302032  	-0.020769 
2947.230848  	-0.020758 
2949.159664  	-0.021701 
2951.088480  	-0.023506 
2953.017296  	-0.025069 
2954.946112  	-0.026618 
2956.874928  	-0.028461 
2958.803744  	-0.030252 
2960.732560  	-0.031662 
2962.661376  	-0.033002 
2964.590192  	-0.035254 
2966.519008  	-0.038109 
2968.447824  	-0.040686 
2970.376640  	-0.042464 
2972.305456  	-0.043363 
2974.234272  	-0.042827 
2976.163088  	-0.042288 
2978.091904  	-0.041978 
2980.020720  	-0.041866 
2981.949536  	-0.041596 
2983.878352  	-0.042529 
2985.807168  	-0.044838 
2987.735984  	-0.046791 
2989.664800  	-0.045545 
2991.593616  	-0.037753 
2993.522432  	-0.033207 
2995.451248  	-0.032190 
2997.380064  	-0.030386 
2999.308880  	-0.027606 
3001.237696  	-0.024466 
3003.166512  	-0.021424 
3005.095328  	-0.018452 
3007.024144  	-0.015250 
3008.952960  	-0.012046 
3010.881776  	-0.008844 
3012.810592  	-0.005767 
3014.739408  	-0.003141 
3016.668224  	-0.000568 
3018.597040  	0.001917 
3020.525856  	0.004115 
3022.454672  	0.006346 
3024.383488  	0.008529 
3026.312304  	0.010408 
3028.241120  	0.012196 
3030.169936  	0.013807 
3032.098752  	0.015436 
3034.027568  	0.016619 
3035.956384  	0.017422 
3037.885200  	0.018421 
3039.814016  	0.019525 
3041.742832  	0.020601 
3043.671648  	0.021336 
3045.600464  	0.021896 
3047.529280  	0.022498 
3049.458096  	0.022955 
3051.386912  	0.023128 
3053.315728  	0.023494 
3055.244544  	0.024003 
3057.173360  	0.024460 
3059.102176  	0.024689 
3061.030992  	0.024854 
3062.959808  	0.025221 
3064.888624  	0.025677 
3066.817440  	0.026018 
3068.746256  	0.026245 
3070.675072  	0.026359 
3072.603888  	0.026645 
3074.532704  	0.027080 
3076.461520  	0.027473 
3078.390336  	0.027737 
3080.319152  	0.027970 
3082.247968  	0.028351 
3084.176784  	0.028642 
3086.105600  	0.028657 
3088.034416  	0.028838 
3089.963232  	0.029186 
3091.892048  	0.029457 
3093.820864  	0.029701 
3095.749680  	0.029954 
3097.678496  	0.030104 
3099.607312  	0.030426 
3101.536128  	0.030752 
3103.464944  	0.031089 
3105.393760  	0.031357 
3107.322576  	0.031715 
3109.251392  	0.031949 
3111.180208  	0.032167 
3113.109024  	0.032361 
3115.037840  	0.032585 
3116.966656  	0.032913 
3118.895472  	0.033184 
3120.824288  	0.033311 
3122.753104  	0.033508 
3124.681920  	0.033659 
3126.610736  	0.033755 
3128.539552  	0.033980 
3130.468368  	0.034195 
3132.397184  	0.034314 
3134.326000  	0.034482 
3136.254816  	0.034675 
3138.183632  	0.035007 
3140.112448  	0.035132 
3142.041264  	0.035187 
3143.970080  	0.035423 
3145.898896  	0.035612 
3147.827712  	0.035667 
3149.756528  	0.035941 
3151.685344  	0.036450 
3153.614160  	0.036853 
3155.542976  	0.036955 
3157.471792  	0.036907 
3159.400608  	0.037228 
3161.329424  	0.037620 
3163.258240  	0.037944 
3165.187056  	0.038267 
3167.115872  	0.038425 
3169.044688  	0.038500 
3170.973504  	0.038564 
3172.902320  	0.038658 
3174.831136  	0.038847 
3176.759952  	0.039230 
3178.688768  	0.039524 
3180.617584  	0.039471 
3182.546400  	0.039271 
3184.475216  	0.039624 
3186.404032  	0.039818 
3188.332848  	0.039736 
3190.261664  	0.040010 
3192.190480  	0.040060 
3194.119296  	0.039854 
3196.048112  	0.039878 
3197.976928  	0.040220 
3199.905744  	0.040316 
3201.834560  	0.040218 
3203.763376  	0.040122 
3205.692192  	0.040091 
3207.621008  	0.039995 
3209.549824  	0.040000 
3211.478640  	0.039881 
3213.407456  	0.039769 
3215.336272  	0.039942 
3217.265088  	0.039866 
3219.193904  	0.039678 
3221.122720  	0.039400 
3223.051536  	0.039197 
3224.980352  	0.039017 
3226.909168  	0.038871 
3228.837984  	0.038777 
3230.766800  	0.038909 
3232.695616  	0.038964 
3234.624432  	0.038946 
3236.553248  	0.039039 
3238.482064  	0.038962 
3240.410880  	0.038834 
3242.339696  	0.038863 
3244.268512  	0.038881 
3246.197328  	0.038824 
3248.126144  	0.038683 
3250.054960  	0.038715 
3251.983776  	0.038819 
3253.912592  	0.038912 
3255.841408  	0.039004 
3257.770224  	0.039144 
3259.699040  	0.039285 
3261.627856  	0.039321 
3263.556672  	0.039318 
3265.485488  	0.039322 
3267.414304  	0.039603 
3269.343120  	0.039892 
3271.271936  	0.040150 
3273.200752  	0.040378 
3275.129568  	0.040421 
3277.058384  	0.040358 
3278.987200  	0.040442 
3280.916016  	0.040621 
3282.844832  	0.040668 
3284.773648  	0.040648 
3286.702464  	0.040738 
3288.631280  	0.041064 
3290.560096  	0.041246 
3292.488912  	0.041399 
3294.417728  	0.041547 
3296.346544  	0.041718 
3298.275360  	0.041853 
3300.204176  	0.042005 
3302.132992  	0.042117 
3304.061808  	0.042306 
3305.990624  	0.042673 
3307.919440  	0.042894 
3309.848256  	0.042910 
3311.777072  	0.042889 
3313.705888  	0.043096 
3315.634704  	0.043469 
3317.563520  	0.043846 
3319.492336  	0.043986 
3321.421152  	0.044011 
3323.349968  	0.044119 
3325.278784  	0.044425 
3327.207600  	0.044642 
3329.136416  	0.044619 
3331.065232  	0.044447 
3332.994048  	0.044530 
3334.922864  	0.044716 
3336.851680  	0.044711 
3338.780496  	0.044646 
3340.709312  	0.044650 
3342.638128  	0.044694 
3344.566944  	0.044580 
3346.495760  	0.044312 
3348.424576  	0.044237 
3350.353392  	0.044195 
3352.282208  	0.044069 
3354.211024  	0.044114 
3356.139840  	0.044152 
3358.068656  	0.043848 
3359.997472  	0.043623 
3361.926288  	0.043422 
3363.855104  	0.043112 
3365.783920  	0.042971 
3367.712736  	0.042949 
3369.641552  	0.042677 
3371.570368  	0.042303 
3373.499184  	0.042015 
3375.428000  	0.041746 
3377.356816  	0.041455 
3379.285632  	0.041328 
3381.214448  	0.041319 
3383.143264  	0.041199 
3385.072080  	0.041198 
3387.000896  	0.040960 
3388.929712  	0.040432 
3390.858528  	0.040292 
3392.787344  	0.040408 
3394.716160  	0.040108 
3396.644976  	0.039827 
3398.573792  	0.039585 
3400.502608  	0.039138 
3402.431424  	0.038712 
3404.360240  	0.038406 
3406.289056  	0.038194 
3408.217872  	0.038008 
3410.146688  	0.037769 
3412.075504  	0.037889 
3414.004320  	0.037785 
3415.933136  	0.037313 
3417.861952  	0.036945 
3419.790768  	0.037050 
3421.719584  	0.036997 
3423.648400  	0.036353 
3425.577216  	0.035960 
3427.506032  	0.035880 
3429.434848  	0.035579 
3431.363664  	0.035340 
3433.292480  	0.035145 
3435.221296  	0.035003 
3437.150112  	0.034878 
3439.078928  	0.034593 
3441.007744  	0.034365 
3442.936560  	0.034388 
3444.865376  	0.034080 
3446.794192  	0.033739 
3448.723008  	0.033523 
3450.651824  	0.032887 
3452.580640  	0.032386 
3454.509456  	0.032073 
3456.438272  	0.031901 
3458.367088  	0.031761 
3460.295904  	0.031440 
3462.224720  	0.031041 
3464.153536  	0.030559 
3466.082352  	0.030391 
3468.011168  	0.030158 
3469.939984  	0.029680 
3471.868800  	0.029181 
3473.797616  	0.028773 
3475.726432  	0.028368 
3477.655248  	0.027925 
3479.584064  	0.027831 
3481.512880  	0.027806 
3483.441696  	0.027261 
3485.370512  	0.026432 
3487.299328  	0.026232 
3489.228144  	0.026011 
3491.156960  	0.025400 
3493.085776  	0.025225 
3495.014592  	0.025129 
3496.943408  	0.024752 
3498.872224  	0.024339 
3500.801040  	0.024543 
3502.729856  	0.024738 
3504.658672  	0.024040 
3506.587488  	0.022814 
3508.516304  	0.022644 
3510.445120  	0.022776 
3512.373936  	0.022302 
3514.302752  	0.021870 
3516.231568  	0.021567 
3518.160384  	0.021325 
3520.089200  	0.021310 
3522.018016  	0.021611 
3523.946832  	0.021954 
3525.875648  	0.021375 
3527.804464  	0.020668 
3529.733280  	0.020209 
3531.662096  	0.019552 
3533.590912  	0.019071 
3535.519728  	0.019308 
3537.448544  	0.019288 
3539.377360  	0.018504 
3541.306176  	0.017976 
3543.234992  	0.018244 
3545.163808  	0.019346 
3547.092624  	0.019218 
3549.021440  	0.017449 
3550.950256  	0.016703 
3552.879072  	0.017125 
3554.807888  	0.016552 
3556.736704  	0.015703 
3558.665520  	0.015714 
3560.594336  	0.016028 
3562.523152  	0.015643 
3564.451968  	0.016073 
3566.380784  	0.017800 
3568.309600  	0.017609 
3570.238416  	0.015206 
3572.167232  	0.013641 
3574.096048  	0.013119 
3576.024864  	0.012782 
3577.953680  	0.012534 
3579.882496  	0.012573 
3581.811312  	0.012373 
3583.740128  	0.012051 
3585.668944  	0.012626 
3587.597760  	0.014126 
3589.526576  	0.012820 
3591.455392  	0.010514 
3593.384208  	0.010449 
3595.313024  	0.010568 
3597.241840  	0.009571 
3599.170656  	0.008720 
3601.099472  	0.008410 
3603.028288  	0.007770 
3604.957104  	0.007109 
3606.885920  	0.007375 
3608.814736  	0.008107 
3610.743552  	0.007380 
3612.672368  	0.006826 
3614.601184  	0.006494 
3616.530000  	0.004989 
3618.458816  	0.004829 
3620.387632  	0.004844 
3622.316448  	0.003031 
3624.245264  	0.001601 
3626.174080  	0.000717 
3628.102896  	0.000901 
3630.031712  	0.002266 
3631.960528  	0.000409 
3633.889344  	-0.001146 
3635.818160  	-0.002618 
3637.746976  	-0.003814 
3639.675792  	-0.004210 
3641.604608  	-0.004856 
3643.533424  	-0.006021 
3645.462240  	-0.007459 
3647.391056  	-0.007647 
3649.319872  	-0.007489 
3651.248688  	-0.007895 
3653.177504  	-0.010676 
3655.106320  	-0.013320 
3657.035136  	-0.014146 
3658.963952  	-0.015495 
3660.892768  	-0.016839 
3662.821584  	-0.017531 
3664.750400  	-0.017617 
3666.679216  	-0.018122 
3668.608032  	-0.018248 
3670.536848  	-0.016722 
3672.465664  	-0.016987 
3674.394480  	-0.019391 
3676.323296  	-0.017757 
3678.252112  	-0.015120 
3680.180928  	-0.014565 
3682.109744  	-0.016004 
3684.038560  	-0.017223 
3685.967376  	-0.017739 
3687.896192  	-0.017556 
3689.825008  	-0.015540 
3691.753824  	-0.014369 
3693.682640  	-0.014310 
3695.611456  	-0.014082 
3697.540272  	-0.012813 
3699.469088  	-0.011861 
3701.397904  	-0.009983 
3703.326720  	-0.008076 
3705.255536  	-0.007741 
3707.184352  	-0.007802 
3709.113168  	-0.007289 
3711.041984  	-0.005177 
3712.970800  	-0.003199 
3714.899616  	-0.003379 
3716.828432  	-0.004399 
3718.757248  	-0.004699 
3720.686064  	-0.004867 
3722.614880  	-0.003761 
3724.543696  	-0.002844 
3726.472512  	-0.002502 
3728.401328  	-0.003673 
3730.330144  	-0.005672 
3732.258960  	-0.005418 
3734.187776  	-0.002488 
3736.116592  	0.000114 
3738.045408  	-0.001543 
3739.974224  	-0.003157 
3741.903040  	-0.003877 
3743.831856  	-0.002940 
3745.760672  	-0.000327 
3747.689488  	-0.003148 
3749.618304  	-0.004369 
3751.547120  	-0.002886 
3753.475936  	-0.001729 
3755.404752  	-0.002903 
3757.333568  	-0.003567 
3759.262384  	-0.003215 
3761.191200  	-0.002870 
3763.120016  	-0.003609 
3765.048832  	-0.003443 
3766.977648  	-0.003184 
3768.906464  	-0.003816 
3770.835280  	-0.002856 
3772.764096  	-0.003004 
3774.692912  	-0.003851 
3776.621728  	-0.004392 
3778.550544  	-0.004226 
3780.479360  	-0.003380 
3782.408176  	-0.003739 
3784.336992  	-0.003862 
3786.265808  	-0.003806 
3788.194624  	-0.004052 
3790.123440  	-0.004088 
3792.052256  	-0.004154 
3793.981072  	-0.004411 
3795.909888  	-0.004101 
3797.838704  	-0.003395 
3799.767520  	-0.004719 
3801.696336  	-0.003776 
3803.625152  	-0.002984 
3805.553968  	-0.004613 
3807.482784  	-0.003696 
3809.411600  	-0.003333 
3811.340416  	-0.004064 
3813.269232  	-0.004726 
3815.198048  	-0.004924 
3817.126864  	-0.003290 
3819.055680  	-0.004251 
3820.984496  	-0.003600 
3822.913312  	-0.001987 
3824.842128  	-0.003544 
3826.770944  	-0.003839 
3828.699760  	-0.003885 
3830.628576  	-0.004638 
3832.557392  	-0.004294 
3834.486208  	-0.004345 
3836.415024  	-0.004603 
3838.343840  	-0.003338 
3840.272656  	-0.002492 
3842.201472  	-0.003209 
3844.130288  	-0.003384 
3846.059104  	-0.003632 
3847.987920  	-0.004404 
3849.916736  	-0.004938 
3851.845552  	-0.005318 
3853.774368  	-0.002186 
3855.703184  	-0.001185 
3857.632000  	-0.002861 
3859.560816  	-0.004205 
3861.489632  	-0.004170 
3863.418448  	-0.003503 
3865.347264  	-0.002826 
3867.276080  	-0.003795 
3869.204896  	-0.003654 
3871.133712  	-0.001392 
3873.062528  	-0.002721 
3874.991344  	-0.003018 
3876.920160  	-0.004071 
3878.848976  	-0.004283 
3880.777792  	-0.002261 
3882.706608  	-0.002399 
3884.635424  	-0.003431 
3886.564240  	-0.002492 
3888.493056  	-0.003675 
3890.421872  	-0.004054 
3892.350688  	-0.002732 
3894.279504  	-0.003147 
3896.208320  	-0.003950 
3898.137136  	-0.003558 
3900.065952  	-0.002132 
3901.994768  	-0.001552 
3903.923584  	-0.001217 
3905.852400  	-0.001582 
3907.781216  	-0.003217 
3909.710032  	-0.004377 
3911.638848  	-0.004509 
3913.567664  	-0.004221 
3915.496480  	-0.003459 
3917.425296  	-0.002193 
3919.354112  	-0.002398 
3921.282928  	-0.002862 
3923.211744  	-0.002961 
3925.140560  	-0.002518 
3927.069376  	-0.003230 
3928.998192  	-0.003575 
3930.927008  	-0.002425 
3932.855824  	-0.001632 
3934.784640  	-0.002804 
3936.713456  	-0.003652 
3938.642272  	-0.003547 
3940.571088  	-0.003549 
3942.499904  	-0.002566 
3944.428720  	-0.002454 
3946.357536  	-0.003200 
3948.286352  	-0.002758 
3950.215168  	-0.002932 
3952.143984  	-0.003649 
3954.072800  	-0.003906 
3956.001616  	-0.003907 
3957.930432  	-0.003768 
3959.859248  	-0.003508 
3961.788064  	-0.003399 
3963.716880  	-0.003705 
3965.645696  	-0.004119 
3967.574512  	-0.003891 
3969.503328  	-0.003786 
3971.432144  	-0.004075 
3973.360960  	-0.004019 
3975.289776  	-0.003526 
3977.218592  	-0.003654 
3979.147408  	-0.003915 
3981.076224  	-0.004072 
3983.005040  	-0.004280 
3984.933856  	-0.004261 
3986.862672  	-0.004102 
3988.791488  	-0.004086 
3990.720304  	-0.004019 
3992.649120  	-0.004195 
3994.577936  	-0.004365 
3996.506752  	-0.004451 
3998.435568  	-0.004340 
4000.364384  	-0.004159 