##TITLE=No Description
##DATA TYPE=INFRARED SPECTRUM
##XUNITS=1/CM
##YUNITS=Abs
399.264912  	0.644745 
401.193728  	0.639162 
403.122544  	0.634866 
405.051360  	0.619034 
406.980176  	0.608444 
408.908992  	0.587357 
410.837808  	0.583921 
412.766624  	0.592807 
414.695440  	0.601062 
416.624256  	0.596857 
418.553072  	0.590003 
420.481888  	0.573030 
422.410704  	0.585754 
424.339520  	0.588278 
426.268336  	0.578809 
428.197152  	0.566466 
430.125968  	0.575652 
432.054784  	0.571313 
433.983600  	0.565435 
435.912416  	0.555122 
437.841232  	0.556871 
439.770048  	0.554339 
441.698864  	0.549568 
443.627680  	0.543356 
445.556496  	0.546105 
447.485312  	0.546505 
449.414128  	0.545700 
451.342944  	0.540629 
453.271760  	0.543683 
455.200576  	0.541511 
457.129392  	0.538658 
459.058208  	0.538283 
460.987024  	0.545902 
462.915840  	0.540918 
464.844656  	0.541024 
466.773472  	0.545604 
468.702288  	0.545479 
470.631104  	0.542493 
472.559920  	0.542368 
474.488736  	0.538021 
476.417552  	0.538676 
478.346368  	0.533744 
480.275184  	0.536878 
482.204000  	0.539123 
484.132816  	0.539049 
486.061632  	0.533642 
487.990448  	0.533730 
489.919264  	0.534047 
491.848080  	0.531041 
493.776896  	0.528638 
495.705712  	0.529862 
497.634528  	0.527916 
499.563344  	0.529641 
501.492160  	0.529122 
503.420976  	0.529536 
505.349792  	0.526975 
507.278608  	0.527367 
509.207424  	0.525861 
511.136240  	0.526633 
513.065056  	0.527289 
514.993872  	0.529153 
516.922688  	0.528371 
518.851504  	0.531046 
520.780320  	0.532848 
522.709136  	0.533732 
524.637952  	0.527792 
526.566768  	0.525052 
528.495584  	0.523461 
530.424400  	0.522498 
532.353216  	0.519000 
534.282032  	0.515186 
536.210848  	0.509573 
538.139664  	0.507060 
540.068480  	0.500478 
541.997296  	0.494571 
543.926112  	0.490052 
545.854928  	0.486991 
547.783744  	0.482117 
549.712560  	0.476691 
551.641376  	0.471292 
553.570192  	0.469499 
555.499008  	0.467147 
557.427824  	0.464687 
559.356640  	0.460384 
561.285456  	0.456281 
563.214272  	0.451897 
565.143088  	0.448693 
567.071904  	0.443840 
569.000720  	0.440669 
570.929536  	0.437577 
572.858352  	0.434581 
574.787168  	0.431498 
576.715984  	0.428206 
578.644800  	0.423393 
580.573616  	0.419165 
582.502432  	0.415641 
584.431248  	0.413240 
586.360064  	0.409477 
588.288880  	0.407145 
590.217696  	0.404757 
592.146512  	0.403432 
594.075328  	0.400479 
596.004144  	0.397296 
597.932960  	0.395808 
599.861776  	0.395460 
601.790592  	0.393959 
603.719408  	0.392267 
605.648224  	0.390653 
607.577040  	0.390332 
609.505856  	0.389364 
611.434672  	0.387871 
613.363488  	0.385014 
615.292304  	0.383576 
617.221120  	0.381441 
619.149936  	0.379773 
621.078752  	0.377661 
623.007568  	0.376050 
624.936384  	0.374736 
626.865200  	0.373954 
628.794016  	0.372673 
630.722832  	0.370847 
632.651648  	0.369443 
634.580464  	0.368913 
636.509280  	0.369542 
638.438096  	0.369654 
640.366912  	0.368588 
642.295728  	0.366933 
644.224544  	0.364333 
646.153360  	0.361595 
648.082176  	0.357581 
650.010992  	0.354277 
651.939808  	0.350716 
653.868624  	0.346931 
655.797440  	0.343080 
657.726256  	0.339621 
659.655072  	0.335342 
661.583888  	0.331025 
663.512704  	0.326937 
665.441520  	0.323349 
667.370336  	0.317259 
669.299152  	0.312622 
671.227968  	0.311637 
673.156784  	0.308980 
675.085600  	0.306129 
677.014416  	0.304592 
678.943232  	0.303523 
680.872048  	0.301546 
682.800864  	0.299389 
684.729680  	0.298460 
686.658496  	0.296887 
688.587312  	0.294703 
690.516128  	0.292523 
692.444944  	0.291676 
694.373760  	0.290824 
696.302576  	0.289392 
698.231392  	0.287120 
700.160208  	0.284243 
702.089024  	0.281306 
704.017840  	0.279686 
705.946656  	0.277318 
707.875472  	0.274461 
709.804288  	0.272315 
711.733104  	0.270933 
713.661920  	0.269134 
715.590736  	0.268039 
717.519552  	0.267510 
719.448368  	0.267895 
721.377184  	0.268919 
723.306000  	0.269796 
725.234816  	0.269684 
727.163632  	0.268325 
729.092448  	0.265576 
731.021264  	0.262817 
732.950080  	0.259874 
734.878896  	0.256910 
736.807712  	0.253836 
738.736528  	0.251629 
740.665344  	0.249954 
742.594160  	0.248664 
744.522976  	0.247095 
746.451792  	0.245574 
748.380608  	0.244198 
750.309424  	0.243592 
752.238240  	0.242825 
754.167056  	0.242260 
756.095872  	0.241432 
758.024688  	0.240281 
759.953504  	0.239255 
761.882320  	0.239573 
763.811136  	0.240393 
765.739952  	0.240009 
767.668768  	0.238288 
769.597584  	0.236577 
771.526400  	0.236497 
773.455216  	0.238276 
775.384032  	0.241097 
777.312848  	0.245197 
779.241664  	0.249584 
781.170480  	0.250980 
783.099296  	0.247535 
785.028112  	0.242088 
786.956928  	0.236100 
788.885744  	0.230950 
790.814560  	0.227134 
792.743376  	0.224863 
794.672192  	0.223247 
796.601008  	0.222280 
798.529824  	0.220243 
800.458640  	0.216272 
802.387456  	0.212396 
804.316272  	0.210652 
806.245088  	0.210075 
808.173904  	0.209652 
810.102720  	0.209473 
812.031536  	0.209540 
813.960352  	0.209593 
815.889168  	0.209708 
817.817984  	0.209606 
819.746800  	0.209723 
821.675616  	0.209817 
823.604432  	0.209470 
825.533248  	0.208665 
827.462064  	0.207674 
829.390880  	0.206661 
831.319696  	0.205377 
833.248512  	0.203558 
835.177328  	0.201744 
837.106144  	0.199406 
839.034960  	0.195945 
840.963776  	0.192478 
842.892592  	0.189464 
844.821408  	0.186022 
846.750224  	0.182739 
848.679040  	0.180053 
850.607856  	0.177543 
852.536672  	0.175560 
854.465488  	0.173789 
856.394304  	0.172016 
858.323120  	0.170126 
860.251936  	0.167911 
862.180752  	0.165293 
864.109568  	0.162626 
866.038384  	0.160345 
867.967200  	0.158367 
869.896016  	0.156913 
871.824832  	0.156099 
873.753648  	0.156312 
875.682464  	0.157001 
877.611280  	0.156693 
879.540096  	0.156419 
881.468912  	0.158062 
883.397728  	0.158829 
885.326544  	0.159173 
887.255360  	0.158673 
889.184176  	0.156654 
891.112992  	0.153773 
893.041808  	0.151782 
894.970624  	0.149856 
896.899440  	0.146870 
898.828256  	0.143251 
900.757072  	0.139908 
902.685888  	0.137296 
904.614704  	0.136088 
906.543520  	0.136518 
908.472336  	0.138372 
910.401152  	0.141227 
912.329968  	0.144741 
914.258784  	0.148451 
916.187600  	0.151804 
918.116416  	0.154452 
920.045232  	0.156005 
921.974048  	0.156280 
923.902864  	0.155864 
925.831680  	0.154985 
927.760496  	0.154217 
929.689312  	0.153651 
931.618128  	0.153784 
933.546944  	0.154124 
935.475760  	0.154286 
937.404576  	0.154501 
939.333392  	0.155162 
941.262208  	0.156241 
943.191024  	0.158400 
945.119840  	0.162323 
947.048656  	0.167586 
948.977472  	0.174575 
950.906288  	0.182765 
952.835104  	0.191477 
954.763920  	0.200236 
956.692736  	0.208558 
958.621552  	0.215728 
960.550368  	0.220446 
962.479184  	0.222738 
964.408000  	0.221384 
966.336816  	0.216849 
968.265632  	0.209095 
970.194448  	0.199506 
972.123264  	0.188424 
974.052080  	0.176572 
975.980896  	0.165008 
977.909712  	0.154166 
979.838528  	0.144934 
981.767344  	0.137363 
983.696160  	0.132001 
985.624976  	0.129118 
987.553792  	0.128833 
989.482608  	0.130629 
991.411424  	0.134421 
993.340240  	0.140188 
995.269056  	0.147297 
997.197872  	0.154712 
999.126688  	0.161924 
1001.055504  	0.169401 
1002.984320  	0.176355 
1004.913136  	0.182946 
1006.841952  	0.188675 
1008.770768  	0.193327 
1010.699584  	0.196312 
1012.628400  	0.197845 
1014.557216  	0.198270 
1016.486032  	0.198354 
1018.414848  	0.198349 
1020.343664  	0.198356 
1022.272480  	0.198134 
1024.201296  	0.196864 
1026.130112  	0.191713 
1028.058928  	0.190081 
1029.987744  	0.195515 
1031.916560  	0.197920 
1033.845376  	0.197840 
1035.774192  	0.196625 
1037.703008  	0.197164 
1039.631824  	0.202945 
1041.560640  	0.210354 
1043.489456  	0.220002 
1045.418272  	0.232168 
1047.347088  	0.246484 
1049.275904  	0.261024 
1051.204720  	0.274542 
1053.133536  	0.285215 
1055.062352  	0.292086 
1056.991168  	0.294144 
1058.919984  	0.298851 
1060.848800  	0.303091 
1062.777616  	0.299957 
1064.706432  	0.289097 
1066.635248  	0.281277 
1068.564064  	0.282043 
1070.492880  	0.278520 
1072.421696  	0.269626 
1074.350512  	0.261914 
1076.279328  	0.257498 
1078.208144  	0.256520 
1080.136960  	0.258059 
1082.065776  	0.260771 
1083.994592  	0.262662 
1085.923408  	0.263607 
1087.852224  	0.262817 
1089.781040  	0.261206 
1091.709856  	0.258789 
1093.638672  	0.252882 
1095.567488  	0.243119 
1097.496304  	0.232361 
1099.425120  	0.220752 
1101.353936  	0.209140 
1103.282752  	0.197946 
1105.211568  	0.187002 
1107.140384  	0.176458 
1109.069200  	0.166521 
1110.998016  	0.157499 
1112.926832  	0.149322 
1114.855648  	0.141215 
1116.784464  	0.133250 
1118.713280  	0.126036 
1120.642096  	0.119419 
1122.570912  	0.112820 
1124.499728  	0.106400 
1126.428544  	0.100566 
1128.357360  	0.095145 
1130.286176  	0.090108 
1132.214992  	0.085888 
1134.143808  	0.082380 
1136.072624  	0.079266 
1138.001440  	0.076247 
1139.930256  	0.073212 
1141.859072  	0.070536 
1143.787888  	0.067789 
1145.716704  	0.065628 
1147.645520  	0.063785 
1149.574336  	0.062288 
1151.503152  	0.060933 
1153.431968  	0.060573 
1155.360784  	0.060578 
1157.289600  	0.061107 
1159.218416  	0.062169 
1161.147232  	0.063828 
1163.076048  	0.065472 
1165.004864  	0.067498 
1166.933680  	0.069453 
1168.862496  	0.071779 
1170.791312  	0.074605 
1172.720128  	0.077375 
1174.648944  	0.080036 
1176.577760  	0.082815 
1178.506576  	0.085653 
1180.435392  	0.088374 
1182.364208  	0.090979 
1184.293024  	0.093874 
1186.221840  	0.096920 
1188.150656  	0.100401 
1190.079472  	0.104594 
1192.008288  	0.109699 
1193.937104  	0.115687 
1195.865920  	0.122680 
1197.794736  	0.130082 
1199.723552  	0.138157 
1201.652368  	0.146551 
1203.581184  	0.155006 
1205.510000  	0.163307 
1207.438816  	0.171641 
1209.367632  	0.179609 
1211.296448  	0.186754 
1213.225264  	0.193057 
1215.154080  	0.197577 
1217.082896  	0.201025 
1219.011712  	0.203527 
1220.940528  	0.205362 
1222.869344  	0.206385 
1224.798160  	0.206724 
1226.726976  	0.206555 
1228.655792  	0.206203 
1230.584608  	0.205545 
1232.513424  	0.204366 
1234.442240  	0.202437 
1236.371056  	0.199550 
1238.299872  	0.195055 
1240.228688  	0.186750 
1242.157504  	0.178954 
1244.086320  	0.173857 
1246.015136  	0.166102 
1247.943952  	0.156580 
1249.872768  	0.147527 
1251.801584  	0.140523 
1253.730400  	0.133562 
1255.659216  	0.126523 
1257.588032  	0.119800 
1259.516848  	0.113727 
1261.445664  	0.108371 
1263.374480  	0.103827 
1265.303296  	0.099857 
1267.232112  	0.096907 
1269.160928  	0.094818 
1271.089744  	0.093521 
1273.018560  	0.092998 
1274.947376  	0.092879 
1276.876192  	0.092761 
1278.805008  	0.092263 
1280.733824  	0.090872 
1282.662640  	0.088215 
1284.591456  	0.084792 
1286.520272  	0.081552 
1288.449088  	0.078991 
1290.377904  	0.077002 
1292.306720  	0.075702 
1294.235536  	0.074089 
1296.164352  	0.071430 
1298.093168  	0.067974 
1300.021984  	0.064410 
1301.950800  	0.060998 
1303.879616  	0.057867 
1305.808432  	0.055070 
1307.737248  	0.052776 
1309.666064  	0.050707 
1311.594880  	0.049565 
1313.523696  	0.048890 
1315.452512  	0.048334 
1317.381328  	0.048467 
1319.310144  	0.049008 
1321.238960  	0.049331 
1323.167776  	0.049887 
1325.096592  	0.050672 
1327.025408  	0.051163 
1328.954224  	0.051006 
1330.883040  	0.050405 
1332.811856  	0.049317 
1334.740672  	0.048562 
1336.669488  	0.048426 
1338.598304  	0.048828 
1340.527120  	0.047943 
1342.455936  	0.045657 
1344.384752  	0.044787 
1346.313568  	0.045057 
1348.242384  	0.045971 
1350.171200  	0.047514 
1352.100016  	0.049334 
1354.028832  	0.051326 
1355.957648  	0.053477 
1357.886464  	0.055309 
1359.815280  	0.057220 
1361.744096  	0.060028 
1363.672912  	0.061593 
1365.601728  	0.060785 
1367.530544  	0.060797 
1369.459360  	0.060573 
1371.388176  	0.058904 
1373.316992  	0.057344 
1375.245808  	0.054506 
1377.174624  	0.050468 
1379.103440  	0.046903 
1381.032256  	0.043695 
1382.961072  	0.041509 
1384.889888  	0.040886 
1386.818704  	0.041921 
1388.747520  	0.041226 
1390.676336  	0.037301 
1392.605152  	0.031069 
1394.533968  	0.029988 
1396.462784  	0.036179 
1398.391600  	0.038179 
1400.320416  	0.037169 
1402.249232  	0.035256 
1404.178048  	0.035737 
1406.106864  	0.036816 
1408.035680  	0.038479 
1409.964496  	0.041547 
1411.893312  	0.045692 
1413.822128  	0.049640 
1415.750944  	0.054253 
1417.679760  	0.058312 
1419.608576  	0.060622 
1421.537392  	0.059677 
1423.466208  	0.059298 
1425.395024  	0.057966 
1427.323840  	0.055666 
1429.252656  	0.054374 
1431.181472  	0.053309 
1433.110288  	0.052331 
1435.039104  	0.052526 
1436.967920  	0.054307 
1438.896736  	0.054109 
1440.825552  	0.053722 
1442.754368  	0.054203 
1444.683184  	0.054222 
1446.612000  	0.054625 
1448.540816  	0.054705 
1450.469632  	0.054192 
1452.398448  	0.054429 
1454.327264  	0.055090 
1456.256080  	0.057913 
1458.184896  	0.060630 
1460.113712  	0.058903 
1462.042528  	0.057655 
1463.971344  	0.058349 
1465.900160  	0.061062 
1467.828976  	0.062891 
1469.757792  	0.065479 
1471.686608  	0.070726 
1473.615424  	0.078293 
1475.544240  	0.082269 
1477.473056  	0.085297 
1479.401872  	0.086646 
1481.330688  	0.088441 
1483.259504  	0.088854 
1485.188320  	0.088655 
1487.117136  	0.088166 
1489.045952  	0.087813 
1490.974768  	0.084552 
1492.903584  	0.079185 
1494.832400  	0.074943 
1496.761216  	0.071572 
1498.690032  	0.067245 
1500.618848  	0.063413 
1502.547664  	0.059373 
1504.476480  	0.055739 
1506.405296  	0.056897 
1508.334112  	0.058667 
1510.262928  	0.054601 
1512.191744  	0.051585 
1514.120560  	0.050052 
1516.049376  	0.050986 
1517.978192  	0.051766 
1519.907008  	0.052166 
1521.835824  	0.056164 
1523.764640  	0.058495 
1525.693456  	0.061308 
1527.622272  	0.063995 
1529.551088  	0.064313 
1531.479904  	0.064105 
1533.408720  	0.064222 
1535.337536  	0.062000 
1537.266352  	0.058086 
1539.195168  	0.055268 
1541.123984  	0.054166 
1543.052800  	0.053401 
1544.981616  	0.051873 
1546.910432  	0.048825 
1548.839248  	0.047927 
1550.768064  	0.048652 
1552.696880  	0.047463 
1554.625696  	0.048581 
1556.554512  	0.048098 
1558.483328  	0.051137 
1560.412144  	0.057828 
1562.340960  	0.058213 
1564.269776  	0.060390 
1566.198592  	0.065130 
1568.127408  	0.068866 
1570.056224  	0.076211 
1571.985040  	0.081069 
1573.913856  	0.083215 
1575.842672  	0.086038 
1577.771488  	0.089458 
1579.700304  	0.088639 
1581.629120  	0.087940 
1583.557936  	0.087676 
1585.486752  	0.089118 
1587.415568  	0.091882 
1589.344384  	0.096790 
1591.273200  	0.102615 
1593.202016  	0.109633 
1595.130832  	0.116644 
1597.059648  	0.123570 
1598.988464  	0.128965 
1600.917280  	0.133691 
1602.846096  	0.136575 
1604.774912  	0.138161 
1606.703728  	0.137850 
1608.632544  	0.137262 
1610.561360  	0.135652 
1612.490176  	0.134455 
1614.418992  	0.133070 
1616.347808  	0.134433 
1618.276624  	0.137848 
1620.205440  	0.141172 
1622.134256  	0.145473 
1624.063072  	0.154070 
1625.991888  	0.161064 
1627.920704  	0.169731 
1629.849520  	0.179302 
1631.778336  	0.187674 
1633.707152  	0.194489 
1635.635968  	0.205356 
1637.564784  	0.215385 
1639.493600  	0.220540 
1641.422416  	0.224840 
1643.351232  	0.228124 
1645.280048  	0.229978 
1647.208864  	0.232752 
1649.137680  	0.232066 
1651.066496  	0.229475 
1652.995312  	0.227633 
1654.924128  	0.227657 
1656.852944  	0.223970 
1658.781760  	0.220605 
1660.710576  	0.217440 
1662.639392  	0.214590 
1664.568208  	0.211331 
1666.497024  	0.208320 
1668.425840  	0.205592 
1670.354656  	0.203048 
1672.283472  	0.199991 
1674.212288  	0.197717 
1676.141104  	0.196901 
1678.069920  	0.195947 
1679.998736  	0.195936 
1681.927552  	0.195301 
1683.856368  	0.195222 
1685.785184  	0.196082 
1687.714000  	0.194530 
1689.642816  	0.192707 
1691.571632  	0.189728 
1693.500448  	0.186605 
1695.429264  	0.183477 
1697.358080  	0.180160 
1699.286896  	0.175579 
1701.215712  	0.170915 
1703.144528  	0.165703 
1705.073344  	0.160004 
1707.002160  	0.153515 
1708.930976  	0.146984 
1710.859792  	0.140000 
1712.788608  	0.132733 
1714.717424  	0.125611 
1716.646240  	0.117646 
1718.575056  	0.108745 
1720.503872  	0.099221 
1722.432688  	0.091455 
1724.361504  	0.083323 
1726.290320  	0.075647 
1728.219136  	0.069030 
1730.147952  	0.063684 
1732.076768  	0.057916 
1734.005584  	0.053588 
1735.934400  	0.047661 
1737.863216  	0.042784 
1739.792032  	0.038496 
1741.720848  	0.035555 
1743.649664  	0.033122 
1745.578480  	0.030168 
1747.507296  	0.027652 
1749.436112  	0.026732 
1751.364928  	0.025650 
1753.293744  	0.023246 
1755.222560  	0.020815 
1757.151376  	0.020646 
1759.080192  	0.019099 
1761.009008  	0.018555 
1762.937824  	0.018321 
1764.866640  	0.017128 
1766.795456  	0.016615 
1768.724272  	0.017067 
1770.653088  	0.015298 
1772.581904  	0.015790 
1774.510720  	0.015998 
1776.439536  	0.015488 
1778.368352  	0.014679 
1780.297168  	0.015059 
1782.225984  	0.014616 
1784.154800  	0.014416 
1786.083616  	0.014327 
1788.012432  	0.013641 
1789.941248  	0.013326 
1791.870064  	0.014395 
1793.798880  	0.014358 
1795.727696  	0.013984 
1797.656512  	0.013134 
1799.585328  	0.013031 
1801.514144  	0.013533 
1803.442960  	0.012711 
1805.371776  	0.011820 
1807.300592  	0.011945 
1809.229408  	0.011610 
1811.158224  	0.011962 
1813.087040  	0.011685 
1815.015856  	0.010872 
1816.944672  	0.010757 
1818.873488  	0.011014 
1820.802304  	0.010899 
1822.731120  	0.011138 
1824.659936  	0.011766 
1826.588752  	0.011923 
1828.517568  	0.011034 
1830.446384  	0.012029 
1832.375200  	0.011535 
1834.304016  	0.010908 
1836.232832  	0.010743 
1838.161648  	0.011233 
1840.090464  	0.010899 
1842.019280  	0.010602 
1843.948096  	0.011156 
1845.876912  	0.012101 
1847.805728  	0.011737 
1849.734544  	0.011281 
1851.663360  	0.010373 
1853.592176  	0.010360 
1855.520992  	0.010166 
1857.449808  	0.010781 
1859.378624  	0.010734 
1861.307440  	0.010602 
1863.236256  	0.010216 
1865.165072  	0.010297 
1867.093888  	0.010574 
1869.022704  	0.011815 
1870.951520  	0.011158 
1872.880336  	0.010349 
1874.809152  	0.009945 
1876.737968  	0.009866 
1878.666784  	0.009483 
1880.595600  	0.009797 
1882.524416  	0.009892 
1884.453232  	0.009997 
1886.382048  	0.009636 
1888.310864  	0.009879 
1890.239680  	0.010376 
1892.168496  	0.009993 
1894.097312  	0.009600 
1896.026128  	0.010140 
1897.954944  	0.009509 
1899.883760  	0.009247 
1901.812576  	0.008867 
1903.741392  	0.009014 
1905.670208  	0.008965 
1907.599024  	0.009162 
1909.527840  	0.008960 
1911.456656  	0.009206 
1913.385472  	0.009139 
1915.314288  	0.009278 
1917.243104  	0.009479 
1919.171920  	0.009584 
1921.100736  	0.009318 
1923.029552  	0.010197 
1924.958368  	0.008670 
1926.887184  	0.008097 
1928.816000  	0.007877 
1930.744816  	0.007862 
1932.673632  	0.007832 
1934.602448  	0.008708 
1936.531264  	0.008553 
1938.460080  	0.008126 
1940.388896  	0.007978 
1942.317712  	0.009032 
1944.246528  	0.008194 
1946.175344  	0.008452 
1948.104160  	0.008385 
1950.032976  	0.008258 
1951.961792  	0.008155 
1953.890608  	0.008651 
1955.819424  	0.008157 
1957.748240  	0.008153 
1959.677056  	0.007867 
1961.605872  	0.007829 
1963.534688  	0.007397 
1965.463504  	0.008816 
1967.392320  	0.008172 
1969.321136  	0.007898 
1971.249952  	0.007885 
1973.178768  	0.008544 
1975.107584  	0.007083 
1977.036400  	0.007257 
1978.965216  	0.009978 
1980.894032  	0.010697 
1982.822848  	0.008298 
1984.751664  	0.008657 
1986.680480  	0.009667 
1988.609296  	0.010397 
1990.538112  	0.009923 
1992.466928  	0.010254 
1994.395744  	0.009480 
1996.324560  	0.009917 
1998.253376  	0.009450 
2000.182192  	0.009094 
2002.111008  	0.008631 
2004.039824  	0.008200 
2005.968640  	0.006906 
2007.897456  	0.008594 
2009.826272  	0.008420 
2011.755088  	0.007341 
2013.683904  	0.008047 
2015.612720  	0.009249 
2017.541536  	0.008462 
2019.470352  	0.007918 
2021.399168  	0.007130 
2023.327984  	0.008727 
2025.256800  	0.008834 
2027.185616  	0.008763 
2029.114432  	0.008511 
2031.043248  	0.010396 
2032.972064  	0.010444 
2034.900880  	0.010905 
2036.829696  	0.010109 
2038.758512  	0.009071 
2040.687328  	0.008888 
2042.616144  	0.009600 
2044.544960  	0.009740 
2046.473776  	0.010655 
2048.402592  	0.010522 
2050.331408  	0.011315 
2052.260224  	0.010648 
2054.189040  	0.009857 
2056.117856  	0.009033 
2058.046672  	0.009503 
2059.975488  	0.009469 
2061.904304  	0.009381 
2063.833120  	0.010262 
2065.761936  	0.011042 
2067.690752  	0.010215 
2069.619568  	0.010078 
2071.548384  	0.009489 
2073.477200  	0.009291 
2075.406016  	0.009827 
2077.334832  	0.010630 
2079.263648  	0.010108 
2081.192464  	0.009897 
2083.121280  	0.010071 
2085.050096  	0.010316 
2086.978912  	0.010439 
2088.907728  	0.010639 
2090.836544  	0.009816 
2092.765360  	0.009499 
2094.694176  	0.009724 
2096.622992  	0.009975 
2098.551808  	0.009539 
2100.480624  	0.009818 
2102.409440  	0.009761 
2104.338256  	0.010321 
2106.267072  	0.010362 
2108.195888  	0.010326 
2110.124704  	0.010872 
2112.053520  	0.011433 
2113.982336  	0.010935 
2115.911152  	0.010647 
2117.839968  	0.010125 
2119.768784  	0.009813 
2121.697600  	0.009236 
2123.626416  	0.008862 
2125.555232  	0.008740 
2127.484048  	0.009142 
2129.412864  	0.008493 
2131.341680  	0.007752 
2133.270496  	0.008161 
2135.199312  	0.009019 
2137.128128  	0.009243 
2139.056944  	0.009467 
2140.985760  	0.008481 
2142.914576  	0.008919 
2144.843392  	0.008623 
2146.772208  	0.008158 
2148.701024  	0.007833 
2150.629840  	0.007994 
2152.558656  	0.006356 
2154.487472  	0.005733 
2156.416288  	0.005373 
2158.345104  	0.008543 
2160.273920  	0.011756 
2162.202736  	0.012762 
2164.131552  	0.011886 
2166.060368  	0.012804 
2167.989184  	0.011896 
2169.918000  	0.010806 
2171.846816  	0.010220 
2173.775632  	0.010165 
2175.704448  	0.010081 
2177.633264  	0.010569 
2179.562080  	0.011152 
2181.490896  	0.010983 
2183.419712  	0.010369 
2185.348528  	0.010790 
2187.277344  	0.010444 
2189.206160  	0.010654 
2191.134976  	0.012133 
2193.063792  	0.013288 
2194.992608  	0.012777 
2196.921424  	0.012358 
2198.850240  	0.012540 
2200.779056  	0.012472 
2202.707872  	0.011528 
2204.636688  	0.011177 
2206.565504  	0.010912 
2208.494320  	0.011193 
2210.423136  	0.010142 
2212.351952  	0.010564 
2214.280768  	0.011358 
2216.209584  	0.011038 
2218.138400  	0.010867 
2220.067216  	0.011127 
2221.996032  	0.010730 
2223.924848  	0.010493 
2225.853664  	0.010810 
2227.782480  	0.011586 
2229.711296  	0.012145 
2231.640112  	0.012131 
2233.568928  	0.011403 
2235.497744  	0.011355 
2237.426560  	0.011053 
2239.355376  	0.011018 
2241.284192  	0.010738 
2243.213008  	0.010920 
2245.141824  	0.011031 
2247.070640  	0.010442 
2248.999456  	0.010099 
2250.928272  	0.010851 
2252.857088  	0.010849 
2254.785904  	0.010755 
2256.714720  	0.011402 
2258.643536  	0.011723 
2260.572352  	0.011168 
2262.501168  	0.011328 
2264.429984  	0.011301 
2266.358800  	0.011566 
2268.287616  	0.011605 
2270.216432  	0.011536 
2272.145248  	0.011183 
2274.074064  	0.011351 
2276.002880  	0.011597 
2277.931696  	0.011988 
2279.860512  	0.012314 
2281.789328  	0.012779 
2283.718144  	0.012641 
2285.646960  	0.012629 
2287.575776  	0.012609 
2289.504592  	0.012348 
2291.433408  	0.011843 
2293.362224  	0.011942 
2295.291040  	0.012235 
2297.219856  	0.012418 
2299.148672  	0.012454 
2301.077488  	0.012398 
2303.006304  	0.012246 
2304.935120  	0.012104 
2306.863936  	0.011842 
2308.792752  	0.011592 
2310.721568  	0.011462 
2312.650384  	0.010989 
2314.579200  	0.010080 
2316.508016  	0.009430 
2318.436832  	0.008544 
2320.365648  	0.007476 
2322.294464  	0.006407 
2324.223280  	0.005217 
2326.152096  	0.003161 
2328.080912  	0.001565 
2330.009728  	0.000486 
2331.938544  	-0.000461 
2333.867360  	-0.001854 
2335.796176  	-0.003057 
2337.724992  	-0.003937 
2339.653808  	-0.004220 
2341.582624  	-0.003717 
2343.511440  	-0.001762 
2345.440256  	0.001371 
2347.369072  	0.004893 
2349.297888  	0.004737 
2351.226704  	0.001238 
2353.155520  	-0.002556 
2355.084336  	-0.005673 
2357.013152  	-0.008003 
2358.941968  	-0.009560 
2360.870784  	-0.009565 
2362.799600  	-0.008359 
2364.728416  	-0.006764 
2366.657232  	-0.004594 
2368.586048  	-0.002272 
2370.514864  	0.000806 
2372.443680  	0.004040 
2374.372496  	0.006942 
2376.301312  	0.009195 
2378.230128  	0.011031 
2380.158944  	0.012010 
2382.087760  	0.012464 
2384.016576  	0.012534 
2385.945392  	0.012486 
2387.874208  	0.012165 
2389.803024  	0.011841 
2391.731840  	0.011662 
2393.660656  	0.011631 
2395.589472  	0.011766 
2397.518288  	0.011957 
2399.447104  	0.011983 
2401.375920  	0.011891 
2403.304736  	0.011984 
2405.233552  	0.011963 
2407.162368  	0.012006 
2409.091184  	0.012146 
2411.020000  	0.012210 
2412.948816  	0.012440 
2414.877632  	0.012312 
2416.806448  	0.012453 
2418.735264  	0.012662 
2420.664080  	0.012550 
2422.592896  	0.012350 
2424.521712  	0.012378 
2426.450528  	0.012502 
2428.379344  	0.012448 
2430.308160  	0.012421 
2432.236976  	0.012640 
2434.165792  	0.012959 
2436.094608  	0.013403 
2438.023424  	0.013550 
2439.952240  	0.013638 
2441.881056  	0.013779 
2443.809872  	0.013777 
2445.738688  	0.013642 
2447.667504  	0.013634 
2449.596320  	0.013568 
2451.525136  	0.013693 
2453.453952  	0.013892 
2455.382768  	0.014012 
2457.311584  	0.014045 
2459.240400  	0.013980 
2461.169216  	0.013750 
2463.098032  	0.013854 
2465.026848  	0.013946 
2466.955664  	0.013898 
2468.884480  	0.013680 
2470.813296  	0.013919 
2472.742112  	0.013982 
2474.670928  	0.013971 
2476.599744  	0.014106 
2478.528560  	0.014205 
2480.457376  	0.014388 
2482.386192  	0.014379 
2484.315008  	0.014351 
2486.243824  	0.014439 
2488.172640  	0.014516 
2490.101456  	0.014723 
2492.030272  	0.014942 
2493.959088  	0.014962 
2495.887904  	0.014705 
2497.816720  	0.014634 
2499.745536  	0.014649 
2501.674352  	0.014975 
2503.603168  	0.015023 
2505.531984  	0.014978 
2507.460800  	0.015121 
2509.389616  	0.015196 
2511.318432  	0.014973 
2513.247248  	0.015202 
2515.176064  	0.015370 
2517.104880  	0.015524 
2519.033696  	0.015818 
2520.962512  	0.015903 
2522.891328  	0.016057 
2524.820144  	0.016096 
2526.748960  	0.016099 
2528.677776  	0.016199 
2530.606592  	0.016170 
2532.535408  	0.016237 
2534.464224  	0.016571 
2536.393040  	0.016669 
2538.321856  	0.016440 
2540.250672  	0.016438 
2542.179488  	0.016429 
2544.108304  	0.016720 
2546.037120  	0.016849 
2547.965936  	0.017027 
2549.894752  	0.017117 
2551.823568  	0.017185 
2553.752384  	0.017265 
2555.681200  	0.017466 
2557.610016  	0.017488 
2559.538832  	0.017472 
2561.467648  	0.017530 
2563.396464  	0.017914 
2565.325280  	0.018079 
2567.254096  	0.018054 
2569.182912  	0.017917 
2571.111728  	0.017769 
2573.040544  	0.017563 
2574.969360  	0.017763 
2576.898176  	0.018169 
2578.826992  	0.018434 
2580.755808  	0.018315 
2582.684624  	0.018352 
2584.613440  	0.018411 
2586.542256  	0.018640 
2588.471072  	0.018830 
2590.399888  	0.018853 
2592.328704  	0.018933 
2594.257520  	0.019280 
2596.186336  	0.019617 
2598.115152  	0.019580 
2600.043968  	0.019383 
2601.972784  	0.019463 
2603.901600  	0.019639 
2605.830416  	0.019810 
2607.759232  	0.019695 
2609.688048  	0.019798 
2611.616864  	0.020015 
2613.545680  	0.020105 
2615.474496  	0.020168 
2617.403312  	0.020273 
2619.332128  	0.020445 
2621.260944  	0.020494 
2623.189760  	0.020427 
2625.118576  	0.020617 
2627.047392  	0.020851 
2628.976208  	0.021189 
2630.905024  	0.021318 
2632.833840  	0.021454 
2634.762656  	0.021639 
2636.691472  	0.021735 
2638.620288  	0.021824 
2640.549104  	0.022014 
2642.477920  	0.022139 
2644.406736  	0.022174 
2646.335552  	0.022383 
2648.264368  	0.022635 
2650.193184  	0.022870 
2652.122000  	0.023099 
2654.050816  	0.023215 
2655.979632  	0.023130 
2657.908448  	0.023129 
2659.837264  	0.023253 
2661.766080  	0.023259 
2663.694896  	0.023375 
2665.623712  	0.023366 
2667.552528  	0.023359 
2669.481344  	0.023534 
2671.410160  	0.023794 
2673.338976  	0.023965 
2675.267792  	0.024114 
2677.196608  	0.024236 
2679.125424  	0.024379 
2681.054240  	0.024427 
2682.983056  	0.024589 
2684.911872  	0.024799 
2686.840688  	0.024949 
2688.769504  	0.025076 
2690.698320  	0.025179 
2692.627136  	0.025339 
2694.555952  	0.025497 
2696.484768  	0.025505 
2698.413584  	0.025634 
2700.342400  	0.025790 
2702.271216  	0.025945 
2704.200032  	0.026101 
2706.128848  	0.026237 
2708.057664  	0.026379 
2709.986480  	0.026446 
2711.915296  	0.026479 
2713.844112  	0.026615 
2715.772928  	0.026731 
2717.701744  	0.026908 
2719.630560  	0.027053 
2721.559376  	0.027064 
2723.488192  	0.027092 
2725.417008  	0.027436 
2727.345824  	0.027658 
2729.274640  	0.027615 
2731.203456  	0.027559 
2733.132272  	0.027728 
2735.061088  	0.028063 
2736.989904  	0.028121 
2738.918720  	0.028073 
2740.847536  	0.028065 
2742.776352  	0.028166 
2744.705168  	0.028376 
2746.633984  	0.028419 
2748.562800  	0.028528 
2750.491616  	0.028621 
2752.420432  	0.028668 
2754.349248  	0.028731 
2756.278064  	0.028749 
2758.206880  	0.028750 
2760.135696  	0.028921 
2762.064512  	0.028965 
2763.993328  	0.028926 
2765.922144  	0.028928 
2767.850960  	0.028914 
2769.779776  	0.028934 
2771.708592  	0.029061 
2773.637408  	0.029104 
2775.566224  	0.029059 
2777.495040  	0.029029 
2779.423856  	0.029072 
2781.352672  	0.029103 
2783.281488  	0.029152 
2785.210304  	0.029210 
2787.139120  	0.029403 
2789.067936  	0.029544 
2790.996752  	0.029489 
2792.925568  	0.029491 
2794.854384  	0.029557 
2796.783200  	0.029611 
2798.712016  	0.029551 
2800.640832  	0.029564 
2802.569648  	0.029720 
2804.498464  	0.029736 
2806.427280  	0.029730 
2808.356096  	0.029842 
2810.284912  	0.030022 
2812.213728  	0.030011 
2814.142544  	0.030002 
2816.071360  	0.030099 
2818.000176  	0.029942 
2819.928992  	0.029654 
2821.857808  	0.029523 
2823.786624  	0.029441 
2825.715440  	0.029379 
2827.644256  	0.029214 
2829.573072  	0.029079 
2831.501888  	0.028683 
2833.430704  	0.028266 
2835.359520  	0.027864 
2837.288336  	0.027357 
2839.217152  	0.026937 
2841.145968  	0.026608 
2843.074784  	0.026273 
2845.003600  	0.026053 
2846.932416  	0.026101 
2848.861232  	0.026021 
2850.790048  	0.025371 
2852.718864  	0.024185 
2854.647680  	0.022776 
2856.576496  	0.021455 
2858.505312  	0.019987 
2860.434128  	0.018507 
2862.362944  	0.017061 
2864.291760  	0.015535 
2866.220576  	0.014083 
2868.149392  	0.013324 
2870.078208  	0.013151 
2872.007024  	0.012950 
2873.935840  	0.012667 
2875.864656  	0.012294 
2877.793472  	0.011732 
2879.722288  	0.010807 
2881.651104  	0.009541 
2883.579920  	0.008618 
2885.508736  	0.008580 
2887.437552  	0.009018 
2889.366368  	0.009035 
2891.295184  	0.008381 
2893.224000  	0.007819 
2895.152816  	0.007848 
2897.081632  	0.007093 
2899.010448  	0.004066 
2900.939264  	0.001496 
2902.868080  	0.003786 
2904.796896  	0.006298 
2906.725712  	0.007344 
2908.654528  	0.008140 
2910.583344  	0.008797 
2912.512160  	0.010745 
2914.440976  	0.013468 
2916.369792  	0.015317 
2918.298608  	0.016102 
2920.227424  	0.016414 
2922.156240  	0.016977 
2924.085056  	0.017767 
2926.013872  	0.018690 
2927.942688  	0.019751 
2929.871504  	0.020822 
2931.800320  	0.021684 
2933.729136  	0.022262 
2935.657952  	0.022361 
2937.586768  	0.022625 
2939.515584  	0.022756 
2941.444400  	0.022602 
2943.373216  	0.022358 
2945.302032  	0.022291 
2947.230848  	0.022262 
2949.159664  	0.021518 
2951.088480  	0.020311 
2953.017296  	0.019294 
2954.946112  	0.017991 
2956.874928  	0.016545 
2958.803744  	0.015239 
2960.732560  	0.014103 
2962.661376  	0.013059 
2964.590192  	0.011380 
2966.519008  	0.009087 
2968.447824  	0.007137 
2970.376640  	0.005918 
2972.305456  	0.005160 
2974.234272  	0.005319 
2976.163088  	0.005603 
2978.091904  	0.005644 
2980.020720  	0.005433 
2981.949536  	0.005394 
2983.878352  	0.004424 
2985.807168  	0.002336 
2987.735984  	0.000691 
2989.664800  	0.001604 
2991.593616  	0.007268 
2993.522432  	0.010555 
2995.451248  	0.011301 
2997.380064  	0.012737 
2999.308880  	0.014865 
3001.237696  	0.017185 
3003.166512  	0.019583 
3005.095328  	0.022154 
3007.024144  	0.024708 
3008.952960  	0.027038 
3010.881776  	0.029568 
3012.810592  	0.032071 
3014.739408  	0.034217 
3016.668224  	0.036336 
3018.597040  	0.038368 
3020.525856  	0.040103 
3022.454672  	0.041940 
3024.383488  	0.043816 
3026.312304  	0.045513 
3028.241120  	0.046891 
3030.169936  	0.048210 
3032.098752  	0.049854 
3034.027568  	0.050962 
3035.956384  	0.051625 
3037.885200  	0.052499 
3039.814016  	0.053642 
3041.742832  	0.054805 
3043.671648  	0.055586 
3045.600464  	0.056185 
3047.529280  	0.056831 
3049.458096  	0.057486 
3051.386912  	0.057917 
3053.315728  	0.058445 
3055.244544  	0.059164 
3057.173360  	0.059983 
3059.102176  	0.060652 
3061.030992  	0.061110 
3062.959808  	0.061623 
3064.888624  	0.062414 
3066.817440  	0.063149 
3068.746256  	0.063474 
3070.675072  	0.063927 
3072.603888  	0.064651 
3074.532704  	0.065379 
3076.461520  	0.066116 
3078.390336  	0.066705 
3080.319152  	0.067259 
3082.247968  	0.067936 
3084.176784  	0.068559 
3086.105600  	0.069029 
3088.034416  	0.069510 
3089.963232  	0.070087 
3091.892048  	0.070827 
3093.820864  	0.071497 
3095.749680  	0.072200 
3097.678496  	0.072636 
3099.607312  	0.073220 
3101.536128  	0.073969 
3103.464944  	0.074661 
3105.393760  	0.075218 
3107.322576  	0.075808 
3109.251392  	0.076390 
3111.180208  	0.076872 
3113.109024  	0.077381 
3115.037840  	0.077867 
3116.966656  	0.078398 
3118.895472  	0.079036 
3120.824288  	0.079537 
3122.753104  	0.080108 
3124.681920  	0.080529 
3126.610736  	0.080727 
3128.539552  	0.081091 
3130.468368  	0.081450 
3132.397184  	0.081865 
3134.326000  	0.082229 
3136.254816  	0.082773 
3138.183632  	0.083242 
3140.112448  	0.083510 
3142.041264  	0.083876 
3143.970080  	0.084391 
3145.898896  	0.084893 
3147.827712  	0.085320 
3149.756528  	0.085806 
3151.685344  	0.086424 
3153.614160  	0.087029 
3155.542976  	0.087319 
3157.471792  	0.087651 
3159.400608  	0.088374 
3161.329424  	0.089005 
3163.258240  	0.089371 
3165.187056  	0.089716 
3167.115872  	0.090176 
3169.044688  	0.090556 
3170.973504  	0.090950 
3172.902320  	0.091300 
3174.831136  	0.091568 
3176.759952  	0.092011 
3178.688768  	0.092353 
3180.617584  	0.092401 
3182.546400  	0.092420 
3184.475216  	0.092794 
3186.404032  	0.093106 
3188.332848  	0.093129 
3190.261664  	0.093476 
3192.190480  	0.093640 
3194.119296  	0.093463 
3196.048112  	0.093400 
3197.976928  	0.093617 
3199.905744  	0.093699 
3201.834560  	0.093642 
3203.763376  	0.093653 
3205.692192  	0.093556 
3207.621008  	0.093360 
3209.549824  	0.093157 
3211.478640  	0.092893 
3213.407456  	0.092769 
3215.336272  	0.092756 
3217.265088  	0.092505 
3219.193904  	0.092290 
3221.122720  	0.091939 
3223.051536  	0.091624 
3224.980352  	0.091321 
3226.909168  	0.091033 
3228.837984  	0.090777 
3230.766800  	0.090752 
3232.695616  	0.090955 
3234.624432  	0.090844 
3236.553248  	0.090588 
3238.482064  	0.090504 
3240.410880  	0.090365 
3242.339696  	0.090156 
3244.268512  	0.090228 
3246.197328  	0.090512 
3248.126144  	0.090535 
3250.054960  	0.090520 
3251.983776  	0.090396 
3253.912592  	0.090609 
3255.841408  	0.090985 
3257.770224  	0.091101 
3259.699040  	0.091266 
3261.627856  	0.091540 
3263.556672  	0.091592 
3265.485488  	0.091652 
3267.414304  	0.091941 
3269.343120  	0.092234 
3271.271936  	0.092551 
3273.200752  	0.092859 
3275.129568  	0.092933 
3277.058384  	0.092955 
3278.987200  	0.093059 
3280.916016  	0.093228 
3282.844832  	0.093306 
3284.773648  	0.093584 
3286.702464  	0.093890 
3288.631280  	0.094117 
3290.560096  	0.094274 
3292.488912  	0.094733 
3294.417728  	0.095024 
3296.346544  	0.095192 
3298.275360  	0.095525 
3300.204176  	0.095926 
3302.132992  	0.096068 
3304.061808  	0.096345 
3305.990624  	0.096722 
3307.919440  	0.097069 
3309.848256  	0.097360 
3311.777072  	0.097577 
3313.705888  	0.097935 
3315.634704  	0.098302 
3317.563520  	0.098588 
3319.492336  	0.098749 
3321.421152  	0.098914 
3323.349968  	0.099267 
3325.278784  	0.099644 
3327.207600  	0.099704 
3329.136416  	0.099588 
3331.065232  	0.099562 
3332.994048  	0.099694 
3334.922864  	0.099665 
3336.851680  	0.099484 
3338.780496  	0.099368 
3340.709312  	0.099163 
3342.638128  	0.099074 
3344.566944  	0.098903 
3346.495760  	0.098548 
3348.424576  	0.098277 
3350.353392  	0.097989 
3352.282208  	0.097561 
3354.211024  	0.097436 
3356.139840  	0.097311 
3358.068656  	0.096769 
3359.997472  	0.096231 
3361.926288  	0.095764 
3363.855104  	0.095258 
3365.783920  	0.094885 
3367.712736  	0.094551 
3369.641552  	0.093937 
3371.570368  	0.093284 
3373.499184  	0.092844 
3375.428000  	0.092451 
3377.356816  	0.092106 
3379.285632  	0.091704 
3381.214448  	0.091320 
3383.143264  	0.090793 
3385.072080  	0.090447 
3387.000896  	0.089980 
3388.929712  	0.089592 
3390.858528  	0.089205 
3392.787344  	0.088892 
3394.716160  	0.088272 
3396.644976  	0.087813 
3398.573792  	0.087371 
3400.502608  	0.086645 
3402.431424  	0.086070 
3404.360240  	0.085497 
3406.289056  	0.084943 
3408.217872  	0.084399 
3410.146688  	0.083847 
3412.075504  	0.083738 
3414.004320  	0.083393 
3415.933136  	0.082611 
3417.861952  	0.082022 
3419.790768  	0.081846 
3421.719584  	0.081606 
3423.648400  	0.080823 
3425.577216  	0.080129 
3427.506032  	0.079680 
3429.434848  	0.079020 
3431.363664  	0.078450 
3433.292480  	0.078020 
3435.221296  	0.077605 
3437.150112  	0.077157 
3439.078928  	0.076638 
3441.007744  	0.076040 
3442.936560  	0.075657 
3444.865376  	0.074973 
3446.794192  	0.074361 
3448.723008  	0.073828 
3450.651824  	0.072767 
3452.580640  	0.071909 
3454.509456  	0.071413 
3456.438272  	0.070814 
3458.367088  	0.070192 
3460.295904  	0.069730 
3462.224720  	0.069120 
3464.153536  	0.068120 
3466.082352  	0.067394 
3468.011168  	0.066879 
3469.939984  	0.066042 
3471.868800  	0.065254 
3473.797616  	0.064497 
3475.726432  	0.063705 
3477.655248  	0.063110 
3479.584064  	0.062668 
3481.512880  	0.062263 
3483.441696  	0.061406 
3485.370512  	0.060269 
3487.299328  	0.059621 
3489.228144  	0.058862 
3491.156960  	0.057922 
3493.085776  	0.057211 
3495.014592  	0.056606 
3496.943408  	0.056169 
3498.872224  	0.055491 
3500.801040  	0.055143 
3502.729856  	0.055057 
3504.658672  	0.054308 
3506.587488  	0.052816 
3508.516304  	0.052376 
3510.445120  	0.052379 
3512.373936  	0.051389 
3514.302752  	0.050439 
3516.231568  	0.049824 
3518.160384  	0.049284 
3520.089200  	0.049078 
3522.018016  	0.049192 
3523.946832  	0.049401 
3525.875648  	0.048457 
3527.804464  	0.047333 
3529.733280  	0.046599 
3531.662096  	0.045877 
3533.590912  	0.044993 
3535.519728  	0.044799 
3537.448544  	0.044617 
3539.377360  	0.043488 
3541.306176  	0.042508 
3543.234992  	0.042364 
3545.163808  	0.043445 
3547.092624  	0.043639 
3549.021440  	0.041444 
3550.950256  	0.039962 
3552.879072  	0.040429 
3554.807888  	0.039797 
3556.736704  	0.038434 
3558.665520  	0.038019 
3560.594336  	0.038126 
3562.523152  	0.037348 
3564.451968  	0.036828 
3566.380784  	0.038354 
3568.309600  	0.039236 
3570.238416  	0.036439 
3572.167232  	0.033931 
3574.096048  	0.033060 
3576.024864  	0.032703 
3577.953680  	0.031988 
3579.882496  	0.031482 
3581.811312  	0.030902 
3583.740128  	0.030035 
3585.668944  	0.029951 
3587.597760  	0.032010 
3589.526576  	0.031107 
3591.455392  	0.027764 
3593.384208  	0.027016 
3595.313024  	0.027143 
3597.241840  	0.025971 
3599.170656  	0.024722 
3601.099472  	0.024436 
3603.028288  	0.023589 
3604.957104  	0.022094 
3606.885920  	0.021736 
3608.814736  	0.022893 
3610.743552  	0.021487 
3612.672368  	0.020362 
3614.601184  	0.020064 
3616.530000  	0.017656 
3618.458816  	0.017346 
3620.387632  	0.018117 
3622.316448  	0.015814 
3624.245264  	0.013314 
3626.174080  	0.011337 
3628.102896  	0.011924 
3630.031712  	0.015591 
3631.960528  	0.012412 
3633.889344  	0.010201 
3635.818160  	0.008822 
3637.746976  	0.007241 
3639.675792  	0.006352 
3641.604608  	0.005421 
3643.533424  	0.003739 
3645.462240  	0.001136 
3647.391056  	0.001097 
3649.319872  	0.002532 
3651.248688  	0.003634 
3653.177504  	-0.000309 
3655.106320  	-0.003731 
3657.035136  	-0.003195 
3658.963952  	-0.004808 
3660.892768  	-0.006606 
3662.821584  	-0.007372 
3664.750400  	-0.007822 
3666.679216  	-0.009242 
3668.608032  	-0.009917 
3670.536848  	-0.007161 
3672.465664  	-0.008444 
3674.394480  	-0.011496 
3676.323296  	-0.006930 
3678.252112  	-0.005753 
3680.180928  	-0.005928 
3682.109744  	-0.007388 
3684.038560  	-0.008956 
3685.967376  	-0.010584 
3687.896192  	-0.010337 
3689.825008  	-0.006995 
3691.753824  	-0.005772 
3693.682640  	-0.006484 
3695.611456  	-0.006899 
3697.540272  	-0.006112 
3699.469088  	-0.006086 
3701.397904  	-0.004082 
3703.326720  	-0.002222 
3705.255536  	-0.002938 
3707.184352  	-0.003914 
3709.113168  	-0.003801 
3711.041984  	-0.001127 
3712.970800  	0.002362 
3714.899616  	0.001873 
3716.828432  	-0.000153 
3718.757248  	-0.000586 
3720.686064  	-0.000560 
3722.614880  	0.000496 
3724.543696  	0.001093 
3726.472512  	0.001762 
3728.401328  	0.000432 
3730.330144  	-0.002415 
3732.258960  	-0.001721 
3734.187776  	0.001513 
3736.116592  	0.005210 
3738.045408  	0.003658 
3739.974224  	0.000980 
3741.903040  	-0.001163 
3743.831856  	0.000289 
3745.760672  	0.004893 
3747.689488  	0.000164 
3749.618304  	-0.000786 
3751.547120  	0.002627 
3753.475936  	0.004202 
3755.404752  	0.001680 
3757.333568  	0.000657 
3759.262384  	0.001463 
3761.191200  	0.002247 
3763.120016  	0.000578 
3765.048832  	0.000584 
3766.977648  	0.000829 
3768.906464  	0.000304 
3770.835280  	0.002129 
3772.764096  	0.001437 
3774.692912  	0.000302 
3776.621728  	-0.000474 
3778.550544  	-0.000267 
3780.479360  	0.001406 
3782.408176  	0.000535 
3784.336992  	0.000276 
3786.265808  	0.000822 
3788.194624  	0.000415 
3790.123440  	0.000080 
3792.052256  	-0.000081 
3793.981072  	-0.001058 
3795.909888  	-0.000625 
3797.838704  	0.000272 
3799.767520  	-0.001778 
3801.696336  	0.001070 
3803.625152  	0.001879 
3805.553968  	-0.001212 
3807.482784  	0.001039 
3809.411600  	0.001489 
3811.340416  	0.000134 
3813.269232  	-0.001486 
3815.198048  	-0.001684 
3817.126864  	0.001113 
3819.055680  	-0.001263 
3820.984496  	0.000446 
3822.913312  	0.003381 
3824.842128  	0.000659 
3826.770944  	0.000469 
3828.699760  	0.000205 
3830.628576  	-0.000804 
3832.557392  	-0.000151 
3834.486208  	-0.000757 
3836.415024  	-0.001209 
3838.343840  	0.001089 
3840.272656  	0.002397 
3842.201472  	0.001449 
3844.130288  	0.001376 
3846.059104  	0.000817 
3847.987920  	-0.000727 
3849.916736  	-0.002234 
3851.845552  	-0.003184 
3853.774368  	0.003362 
3855.703184  	0.005217 
3857.632000  	0.002086 
3859.560816  	-0.000139 
3861.489632  	-0.000501 
3863.418448  	0.000258 
3865.347264  	0.001786 
3867.276080  	0.000070 
3869.204896  	0.000208 
3871.133712  	0.003552 
3873.062528  	0.001556 
3874.991344  	0.002152 
3876.920160  	0.000421 
3878.848976  	-0.000742 
3880.777792  	0.002087 
3882.706608  	0.001817 
3884.635424  	0.000499 
3886.564240  	0.002802 
3888.493056  	0.000507 
3890.421872  	-0.000221 
3892.350688  	0.002307 
3894.279504  	0.001546 
3896.208320  	-0.000202 
3898.137136  	-0.000123 
3900.065952  	0.001760 
3901.994768  	0.002626 
3903.923584  	0.003639 
3905.852400  	0.003722 
3907.781216  	0.001558 
3909.710032  	0.000183 
3911.638848  	-0.000060 
3913.567664  	-0.000197 
3915.496480  	0.000310 
3917.425296  	0.002211 
3919.354112  	0.002415 
3921.282928  	0.001730 
3923.211744  	0.001227 
3925.140560  	0.002115 
3927.069376  	0.001351 
3928.998192  	0.000534 
3930.927008  	0.001546 
3932.855824  	0.002844 
3934.784640  	0.001932 
3936.713456  	0.000890 
3938.642272  	0.000913 
3940.571088  	0.000671 
3942.499904  	0.001908 
3944.428720  	0.002416 
3946.357536  	0.001385 
3948.286352  	0.001767 
3950.215168  	0.001689 
3952.143984  	0.000928 
3954.072800  	0.000580 
3956.001616  	0.000581 
3957.930432  	0.000645 
3959.859248  	0.000844 
3961.788064  	0.001093 
3963.716880  	0.001086 
3965.645696  	0.000640 
3967.574512  	0.000617 
3969.503328  	0.000727 
3971.432144  	0.000624 
3973.360960  	0.000657 
3975.289776  	0.001058 
3977.218592  	0.001075 
3979.147408  	0.000871 
3981.076224  	0.000684 
3983.005040  	0.000564 
3984.933856  	0.000574 
3986.862672  	0.000545 
3988.791488  	0.000444 
3990.720304  	0.000730 
3992.649120  	0.000696 
3994.577936  	0.000533 
3996.506752  	0.000456 
3998.435568  	0.000473 
4000.364384  	0.000402 