##TITLE=No Description
##DATA TYPE=INFRARED SPECTRUM
##XUNITS=1/CM
##YUNITS=Abs
399.264912  	0.569162 
401.193728  	0.559720 
403.122544  	0.567793 
405.051360  	0.554735 
406.980176  	0.542252 
408.908992  	0.525557 
410.837808  	0.522722 
412.766624  	0.524781 
414.695440  	0.524420 
416.624256  	0.517949 
418.553072  	0.520614 
420.481888  	0.520754 
422.410704  	0.523135 
424.339520  	0.509219 
426.268336  	0.505719 
428.197152  	0.499767 
430.125968  	0.499020 
432.054784  	0.495169 
433.983600  	0.494034 
435.912416  	0.487015 
437.841232  	0.485799 
439.770048  	0.488449 
441.698864  	0.491452 
443.627680  	0.489476 
445.556496  	0.485280 
447.485312  	0.481095 
449.414128  	0.478936 
451.342944  	0.476426 
453.271760  	0.480785 
455.200576  	0.476923 
457.129392  	0.474874 
459.058208  	0.474081 
460.987024  	0.479728 
462.915840  	0.480861 
464.844656  	0.483231 
466.773472  	0.482196 
468.702288  	0.484501 
470.631104  	0.480466 
472.559920  	0.476745 
474.488736  	0.478237 
476.417552  	0.483685 
478.346368  	0.479896 
480.275184  	0.475987 
482.204000  	0.474268 
484.132816  	0.479188 
486.061632  	0.476586 
487.990448  	0.473375 
489.919264  	0.471357 
491.848080  	0.471907 
493.776896  	0.471134 
495.705712  	0.471718 
497.634528  	0.470119 
499.563344  	0.468918 
501.492160  	0.463852 
503.420976  	0.462478 
505.349792  	0.461765 
507.278608  	0.465341 
509.207424  	0.466253 
511.136240  	0.467553 
513.065056  	0.466927 
514.993872  	0.466713 
516.922688  	0.465994 
518.851504  	0.468211 
520.780320  	0.467696 
522.709136  	0.469181 
524.637952  	0.468316 
526.566768  	0.465893 
528.495584  	0.463819 
530.424400  	0.461442 
532.353216  	0.455883 
534.282032  	0.452509 
536.210848  	0.448273 
538.139664  	0.444260 
540.068480  	0.440279 
541.997296  	0.437328 
543.926112  	0.432591 
545.854928  	0.429132 
547.783744  	0.424646 
549.712560  	0.420906 
551.641376  	0.417112 
553.570192  	0.414660 
555.499008  	0.412065 
557.427824  	0.409357 
559.356640  	0.404609 
561.285456  	0.400752 
563.214272  	0.397271 
565.143088  	0.394915 
567.071904  	0.391027 
569.000720  	0.386962 
570.929536  	0.382747 
572.858352  	0.379656 
574.787168  	0.375800 
576.715984  	0.372653 
578.644800  	0.368499 
580.573616  	0.364904 
582.502432  	0.360494 
584.431248  	0.357653 
586.360064  	0.355237 
588.288880  	0.353801 
590.217696  	0.351401 
592.146512  	0.350058 
594.075328  	0.348343 
596.004144  	0.345746 
597.932960  	0.344237 
599.861776  	0.344222 
601.790592  	0.343130 
603.719408  	0.341438 
605.648224  	0.340417 
607.577040  	0.340367 
609.505856  	0.340181 
611.434672  	0.339860 
613.363488  	0.337870 
615.292304  	0.336007 
617.221120  	0.334152 
619.149936  	0.333056 
621.078752  	0.330920 
623.007568  	0.328652 
624.936384  	0.326935 
626.865200  	0.325433 
628.794016  	0.323790 
630.722832  	0.322747 
632.651648  	0.322463 
634.580464  	0.322764 
636.509280  	0.322863 
638.438096  	0.322554 
640.366912  	0.322160 
642.295728  	0.320999 
644.224544  	0.318399 
646.153360  	0.315727 
648.082176  	0.312066 
650.010992  	0.308055 
651.939808  	0.303928 
653.868624  	0.300955 
655.797440  	0.297620 
657.726256  	0.294415 
659.655072  	0.290384 
661.583888  	0.286677 
663.512704  	0.283853 
665.441520  	0.281596 
667.370336  	0.276438 
669.299152  	0.270687 
671.227968  	0.270060 
673.156784  	0.268121 
675.085600  	0.265696 
677.014416  	0.263774 
678.943232  	0.262430 
680.872048  	0.261221 
682.800864  	0.260146 
684.729680  	0.259012 
686.658496  	0.257280 
688.587312  	0.255615 
690.516128  	0.254043 
692.444944  	0.253033 
694.373760  	0.251707 
696.302576  	0.249892 
698.231392  	0.247648 
700.160208  	0.245586 
702.089024  	0.243477 
704.017840  	0.241764 
705.946656  	0.239029 
707.875472  	0.236371 
709.804288  	0.234532 
711.733104  	0.233338 
713.661920  	0.232246 
715.590736  	0.231628 
717.519552  	0.231858 
719.448368  	0.232823 
721.377184  	0.234153 
723.306000  	0.235329 
725.234816  	0.235577 
727.163632  	0.234493 
729.092448  	0.231976 
731.021264  	0.229319 
732.950080  	0.226612 
734.878896  	0.223739 
736.807712  	0.221297 
738.736528  	0.219424 
740.665344  	0.217952 
742.594160  	0.217007 
744.522976  	0.215870 
746.451792  	0.214461 
748.380608  	0.213616 
750.309424  	0.213445 
752.238240  	0.213343 
754.167056  	0.213455 
756.095872  	0.213094 
758.024688  	0.212096 
759.953504  	0.211731 
761.882320  	0.211962 
763.811136  	0.212015 
765.739952  	0.211949 
767.668768  	0.211284 
769.597584  	0.210391 
771.526400  	0.210783 
773.455216  	0.213359 
775.384032  	0.216976 
777.312848  	0.221692 
779.241664  	0.225979 
781.170480  	0.227082 
783.099296  	0.224022 
785.028112  	0.218719 
786.956928  	0.212455 
788.885744  	0.206982 
790.814560  	0.203343 
792.743376  	0.201196 
794.672192  	0.199809 
796.601008  	0.199272 
798.529824  	0.197849 
800.458640  	0.194672 
802.387456  	0.191558 
804.316272  	0.190344 
806.245088  	0.190226 
808.173904  	0.190343 
810.102720  	0.190491 
812.031536  	0.190671 
813.960352  	0.191083 
815.889168  	0.191665 
817.817984  	0.191897 
819.746800  	0.191958 
821.675616  	0.191744 
823.604432  	0.191650 
825.533248  	0.191261 
827.462064  	0.190329 
829.390880  	0.189572 
831.319696  	0.188695 
833.248512  	0.187345 
835.177328  	0.185807 
837.106144  	0.183549 
839.034960  	0.180474 
840.963776  	0.177314 
842.892592  	0.174798 
844.821408  	0.172286 
846.750224  	0.169563 
848.679040  	0.167218 
850.607856  	0.165015 
852.536672  	0.163180 
854.465488  	0.161509 
856.394304  	0.159934 
858.323120  	0.158448 
860.251936  	0.156968 
862.180752  	0.155164 
864.109568  	0.153428 
866.038384  	0.151869 
867.967200  	0.150407 
869.896016  	0.149006 
871.824832  	0.147674 
873.753648  	0.147192 
875.682464  	0.147817 
877.611280  	0.148336 
879.540096  	0.148708 
881.468912  	0.149664 
883.397728  	0.150306 
885.326544  	0.150770 
887.255360  	0.150984 
889.184176  	0.150758 
891.112992  	0.149929 
893.041808  	0.148365 
894.970624  	0.145976 
896.899440  	0.143328 
898.828256  	0.139835 
900.757072  	0.136232 
902.685888  	0.133150 
904.614704  	0.131108 
906.543520  	0.130557 
908.472336  	0.131620 
910.401152  	0.133967 
912.329968  	0.137150 
914.258784  	0.140545 
916.187600  	0.143769 
918.116416  	0.146169 
920.045232  	0.147322 
921.974048  	0.147280 
923.902864  	0.146533 
925.831680  	0.145380 
927.760496  	0.144228 
929.689312  	0.143644 
931.618128  	0.144068 
933.546944  	0.144752 
935.475760  	0.145263 
937.404576  	0.145915 
939.333392  	0.147151 
941.262208  	0.148879 
943.191024  	0.151756 
945.119840  	0.156189 
947.048656  	0.161316 
948.977472  	0.167711 
950.906288  	0.175379 
952.835104  	0.183495 
954.763920  	0.191761 
956.692736  	0.199537 
958.621552  	0.206001 
960.550368  	0.210274 
962.479184  	0.212136 
964.408000  	0.210823 
966.336816  	0.207041 
968.265632  	0.200586 
970.194448  	0.192158 
972.123264  	0.182304 
974.052080  	0.171945 
975.980896  	0.161623 
977.909712  	0.152149 
979.838528  	0.144262 
981.767344  	0.137931 
983.696160  	0.133589 
985.624976  	0.131821 
987.553792  	0.132574 
989.482608  	0.135488 
991.411424  	0.140518 
993.340240  	0.147407 
995.269056  	0.155711 
997.197872  	0.164490 
999.126688  	0.172969 
1001.055504  	0.181309 
1002.984320  	0.189135 
1004.913136  	0.196539 
1006.841952  	0.203099 
1008.770768  	0.208400 
1010.699584  	0.212288 
1012.628400  	0.214781 
1014.557216  	0.216223 
1016.486032  	0.217108 
1018.414848  	0.217576 
1020.343664  	0.218099 
1022.272480  	0.218536 
1024.201296  	0.218736 
1026.130112  	0.218282 
1028.058928  	0.219058 
1029.987744  	0.220984 
1031.916560  	0.223523 
1033.845376  	0.226436 
1035.774192  	0.229924 
1037.703008  	0.234209 
1039.631824  	0.240711 
1041.560640  	0.248798 
1043.489456  	0.259144 
1045.418272  	0.271425 
1047.347088  	0.285816 
1049.275904  	0.300694 
1051.204720  	0.315105 
1053.133536  	0.326770 
1055.062352  	0.334947 
1056.991168  	0.338515 
1058.919984  	0.339690 
1060.848800  	0.338627 
1062.777616  	0.336022 
1064.706432  	0.330197 
1066.635248  	0.323999 
1068.564064  	0.317958 
1070.492880  	0.311087 
1072.421696  	0.303096 
1074.350512  	0.295991 
1076.279328  	0.290157 
1078.208144  	0.286002 
1080.136960  	0.282182 
1082.065776  	0.278329 
1083.994592  	0.274511 
1085.923408  	0.270757 
1087.852224  	0.265923 
1089.781040  	0.260187 
1091.709856  	0.253157 
1093.638672  	0.245196 
1095.567488  	0.235502 
1097.496304  	0.225272 
1099.425120  	0.214821 
1101.353936  	0.204388 
1103.282752  	0.193886 
1105.211568  	0.183400 
1107.140384  	0.173118 
1109.069200  	0.163268 
1110.998016  	0.154166 
1112.926832  	0.145757 
1114.855648  	0.137696 
1116.784464  	0.130021 
1118.713280  	0.123076 
1120.642096  	0.116618 
1122.570912  	0.110162 
1124.499728  	0.104237 
1126.428544  	0.098579 
1128.357360  	0.093191 
1130.286176  	0.088501 
1132.214992  	0.084526 
1134.143808  	0.081057 
1136.072624  	0.077769 
1138.001440  	0.074598 
1139.930256  	0.071620 
1141.859072  	0.069094 
1143.787888  	0.066610 
1145.716704  	0.064578 
1147.645520  	0.063006 
1149.574336  	0.062034 
1151.503152  	0.061413 
1153.431968  	0.061434 
1155.360784  	0.061695 
1157.289600  	0.062195 
1159.218416  	0.063005 
1161.147232  	0.064374 
1163.076048  	0.065784 
1165.004864  	0.067572 
1166.933680  	0.069377 
1168.862496  	0.071656 
1170.791312  	0.074114 
1172.720128  	0.076470 
1174.648944  	0.079132 
1176.577760  	0.082147 
1178.506576  	0.085203 
1180.435392  	0.088118 
1182.364208  	0.091033 
1184.293024  	0.094267 
1186.221840  	0.097675 
1188.150656  	0.101486 
1190.079472  	0.105973 
1192.008288  	0.110978 
1193.937104  	0.116578 
1195.865920  	0.122878 
1197.794736  	0.129369 
1199.723552  	0.136538 
1201.652368  	0.144178 
1203.581184  	0.151699 
1205.510000  	0.158938 
1207.438816  	0.166229 
1209.367632  	0.173244 
1211.296448  	0.179436 
1213.225264  	0.184693 
1215.154080  	0.188943 
1217.082896  	0.192334 
1219.011712  	0.194763 
1220.940528  	0.196981 
1222.869344  	0.198208 
1224.798160  	0.198817 
1226.726976  	0.198718 
1228.655792  	0.198125 
1230.584608  	0.196828 
1232.513424  	0.194939 
1234.442240  	0.191724 
1236.371056  	0.187926 
1238.299872  	0.183371 
1240.228688  	0.177976 
1242.157504  	0.171691 
1244.086320  	0.165222 
1246.015136  	0.158259 
1247.943952  	0.151103 
1249.872768  	0.144047 
1251.801584  	0.137300 
1253.730400  	0.130632 
1255.659216  	0.124370 
1257.588032  	0.118440 
1259.516848  	0.112849 
1261.445664  	0.107707 
1263.374480  	0.103147 
1265.303296  	0.099047 
1267.232112  	0.095504 
1269.160928  	0.093011 
1271.089744  	0.091544 
1273.018560  	0.090981 
1274.947376  	0.091095 
1276.876192  	0.091186 
1278.805008  	0.090715 
1280.733824  	0.089044 
1282.662640  	0.086087 
1284.591456  	0.082297 
1286.520272  	0.078416 
1288.449088  	0.075217 
1290.377904  	0.072886 
1292.306720  	0.071082 
1294.235536  	0.068732 
1296.164352  	0.065596 
1298.093168  	0.062041 
1300.021984  	0.058494 
1301.950800  	0.055168 
1303.879616  	0.052522 
1305.808432  	0.050450 
1307.737248  	0.048945 
1309.666064  	0.047629 
1311.594880  	0.047052 
1313.523696  	0.046855 
1315.452512  	0.046903 
1317.381328  	0.047331 
1319.310144  	0.048075 
1321.238960  	0.048982 
1323.167776  	0.049849 
1325.096592  	0.050348 
1327.025408  	0.050431 
1328.954224  	0.049912 
1330.883040  	0.049101 
1332.811856  	0.048085 
1334.740672  	0.047191 
1336.669488  	0.046259 
1338.598304  	0.045556 
1340.527120  	0.044869 
1342.455936  	0.044380 
1344.384752  	0.044471 
1346.313568  	0.045164 
1348.242384  	0.046382 
1350.171200  	0.048270 
1352.100016  	0.050332 
1354.028832  	0.052467 
1355.957648  	0.054681 
1357.886464  	0.056827 
1359.815280  	0.058501 
1361.744096  	0.060133 
1363.672912  	0.061857 
1365.601728  	0.063006 
1367.530544  	0.063664 
1369.459360  	0.063975 
1371.388176  	0.063382 
1373.316992  	0.062060 
1375.245808  	0.060297 
1377.174624  	0.058728 
1379.103440  	0.056892 
1381.032256  	0.055174 
1382.961072  	0.053753 
1384.889888  	0.052762 
1386.818704  	0.051574 
1388.747520  	0.050332 
1390.676336  	0.049034 
1392.605152  	0.047458 
1394.533968  	0.046486 
1396.462784  	0.047205 
1398.391600  	0.047614 
1400.320416  	0.048472 
1402.249232  	0.049262 
1404.178048  	0.050269 
1406.106864  	0.051746 
1408.035680  	0.053594 
1409.964496  	0.055560 
1411.893312  	0.057815 
1413.822128  	0.059751 
1415.750944  	0.061323 
1417.679760  	0.061896 
1419.608576  	0.061845 
1421.537392  	0.061487 
1423.466208  	0.060566 
1425.395024  	0.059081 
1427.323840  	0.057490 
1429.252656  	0.055593 
1431.181472  	0.054401 
1433.110288  	0.053971 
1435.039104  	0.053642 
1436.967920  	0.053754 
1438.896736  	0.054706 
1440.825552  	0.055270 
1442.754368  	0.055723 
1444.683184  	0.055632 
1446.612000  	0.055471 
1448.540816  	0.055593 
1450.469632  	0.055955 
1452.398448  	0.056016 
1454.327264  	0.055896 
1456.256080  	0.055010 
1458.184896  	0.055253 
1460.113712  	0.056483 
1462.042528  	0.057218 
1463.971344  	0.057295 
1465.900160  	0.059182 
1467.828976  	0.061755 
1469.757792  	0.064031 
1471.686608  	0.066380 
1473.615424  	0.071181 
1475.544240  	0.074927 
1477.473056  	0.077711 
1479.401872  	0.078816 
1481.330688  	0.079160 
1483.259504  	0.078781 
1485.188320  	0.077555 
1487.117136  	0.075198 
1489.045952  	0.072618 
1490.974768  	0.069587 
1492.903584  	0.066959 
1494.832400  	0.063398 
1496.761216  	0.059149 
1498.690032  	0.056031 
1500.618848  	0.054158 
1502.547664  	0.052312 
1504.476480  	0.049624 
1506.405296  	0.046448 
1508.334112  	0.047078 
1510.262928  	0.047299 
1512.191744  	0.046596 
1514.120560  	0.045748 
1516.049376  	0.045182 
1517.978192  	0.045576 
1519.907008  	0.046365 
1521.835824  	0.048279 
1523.764640  	0.051688 
1525.693456  	0.054612 
1527.622272  	0.057372 
1529.551088  	0.059228 
1531.479904  	0.059735 
1533.408720  	0.058832 
1535.337536  	0.058415 
1537.266352  	0.056208 
1539.195168  	0.051295 
1541.123984  	0.048578 
1543.052800  	0.049530 
1544.981616  	0.049487 
1546.910432  	0.049043 
1548.839248  	0.048314 
1550.768064  	0.048284 
1552.696880  	0.048167 
1554.625696  	0.048403 
1556.554512  	0.047449 
1558.483328  	0.046317 
1560.412144  	0.051911 
1562.340960  	0.055857 
1564.269776  	0.058017 
1566.198592  	0.061554 
1568.127408  	0.064227 
1570.056224  	0.068992 
1571.985040  	0.073831 
1573.913856  	0.075925 
1575.842672  	0.076647 
1577.771488  	0.078933 
1579.700304  	0.079600 
1581.629120  	0.079723 
1583.557936  	0.080105 
1585.486752  	0.081808 
1587.415568  	0.084665 
1589.344384  	0.088987 
1591.273200  	0.093842 
1593.202016  	0.099317 
1595.130832  	0.104618 
1597.059648  	0.109962 
1598.988464  	0.113771 
1600.917280  	0.116519 
1602.846096  	0.117932 
1604.774912  	0.118951 
1606.703728  	0.118627 
1608.632544  	0.118062 
1610.561360  	0.117359 
1612.490176  	0.117370 
1614.418992  	0.116786 
1616.347808  	0.117545 
1618.276624  	0.121705 
1620.205440  	0.126299 
1622.134256  	0.130276 
1624.063072  	0.137585 
1625.991888  	0.144334 
1627.920704  	0.151565 
1629.849520  	0.159685 
1631.778336  	0.166440 
1633.707152  	0.170630 
1635.635968  	0.176246 
1637.564784  	0.183638 
1639.493600  	0.188356 
1641.422416  	0.191273 
1643.351232  	0.192793 
1645.280048  	0.192152 
1647.208864  	0.192174 
1649.137680  	0.192935 
1651.066496  	0.191182 
1652.995312  	0.187022 
1654.924128  	0.188412 
1656.852944  	0.188106 
1658.781760  	0.186520 
1660.710576  	0.184014 
1662.639392  	0.181631 
1664.568208  	0.180520 
1666.497024  	0.179140 
1668.425840  	0.176544 
1670.354656  	0.174970 
1672.283472  	0.174562 
1674.212288  	0.173660 
1676.141104  	0.173695 
1678.069920  	0.174383 
1679.998736  	0.174239 
1681.927552  	0.173239 
1683.856368  	0.171801 
1685.785184  	0.173573 
1687.714000  	0.173342 
1689.642816  	0.171738 
1691.571632  	0.169382 
1693.500448  	0.166389 
1695.429264  	0.161470 
1697.358080  	0.157195 
1699.286896  	0.153031 
1701.215712  	0.148040 
1703.144528  	0.144573 
1705.073344  	0.139296 
1707.002160  	0.133996 
1708.930976  	0.129344 
1710.859792  	0.123934 
1712.788608  	0.118035 
1714.717424  	0.111490 
1716.646240  	0.104080 
1718.575056  	0.097210 
1720.503872  	0.092063 
1722.432688  	0.086888 
1724.361504  	0.080511 
1726.290320  	0.074764 
1728.219136  	0.069079 
1730.147952  	0.063620 
1732.076768  	0.058193 
1734.005584  	0.052052 
1735.934400  	0.046807 
1737.863216  	0.043454 
1739.792032  	0.038291 
1741.720848  	0.034868 
1743.649664  	0.031829 
1745.578480  	0.028829 
1747.507296  	0.025621 
1749.436112  	0.023758 
1751.364928  	0.022398 
1753.293744  	0.021496 
1755.222560  	0.020019 
1757.151376  	0.018849 
1759.080192  	0.017757 
1761.009008  	0.017079 
1762.937824  	0.016504 
1764.866640  	0.016385 
1766.795456  	0.015579 
1768.724272  	0.015102 
1770.653088  	0.013506 
1772.581904  	0.012849 
1774.510720  	0.013543 
1776.439536  	0.014178 
1778.368352  	0.014106 
1780.297168  	0.014073 
1782.225984  	0.013731 
1784.154800  	0.013686 
1786.083616  	0.013480 
1788.012432  	0.013231 
1789.941248  	0.012409 
1791.870064  	0.011745 
1793.798880  	0.011728 
1795.727696  	0.012336 
1797.656512  	0.011903 
1799.585328  	0.011696 
1801.514144  	0.011795 
1803.442960  	0.011802 
1805.371776  	0.011404 
1807.300592  	0.011379 
1809.229408  	0.010918 
1811.158224  	0.010925 
1813.087040  	0.010916 
1815.015856  	0.010859 
1816.944672  	0.010628 
1818.873488  	0.010931 
1820.802304  	0.010748 
1822.731120  	0.010798 
1824.659936  	0.010511 
1826.588752  	0.010586 
1828.517568  	0.010128 
1830.446384  	0.010517 
1832.375200  	0.010890 
1834.304016  	0.010941 
1836.232832  	0.010718 
1838.161648  	0.010911 
1840.090464  	0.010732 
1842.019280  	0.010622 
1843.948096  	0.010046 
1845.876912  	0.010558 
1847.805728  	0.010862 
1849.734544  	0.011195 
1851.663360  	0.010837 
1853.592176  	0.010760 
1855.520992  	0.010567 
1857.449808  	0.010976 
1859.378624  	0.010885 
1861.307440  	0.010800 
1863.236256  	0.010489 
1865.165072  	0.010552 
1867.093888  	0.010415 
1869.022704  	0.010694 
1870.951520  	0.010721 
1872.880336  	0.011037 
1874.809152  	0.010744 
1876.737968  	0.010833 
1878.666784  	0.010625 
1880.595600  	0.010789 
1882.524416  	0.010625 
1884.453232  	0.010847 
1886.382048  	0.010638 
1888.310864  	0.010711 
1890.239680  	0.010796 
1892.168496  	0.010971 
1894.097312  	0.010567 
1896.026128  	0.011002 
1897.954944  	0.010989 
1899.883760  	0.010971 
1901.812576  	0.010649 
1903.741392  	0.010738 
1905.670208  	0.010466 
1907.599024  	0.010430 
1909.527840  	0.010373 
1911.456656  	0.010806 
1913.385472  	0.010680 
1915.314288  	0.010793 
1917.243104  	0.010773 
1919.171920  	0.011189 
1921.100736  	0.011016 
1923.029552  	0.011353 
1924.958368  	0.010783 
1926.887184  	0.010779 
1928.816000  	0.010271 
1930.744816  	0.010290 
1932.673632  	0.010009 
1934.602448  	0.010526 
1936.531264  	0.010822 
1938.460080  	0.010852 
1940.388896  	0.010660 
1942.317712  	0.010983 
1944.246528  	0.010764 
1946.175344  	0.011316 
1948.104160  	0.010818 
1950.032976  	0.010689 
1951.961792  	0.010800 
1953.890608  	0.011326 
1955.819424  	0.010654 
1957.748240  	0.011027 
1959.677056  	0.010809 
1961.605872  	0.011089 
1963.534688  	0.011600 
1965.463504  	0.013156 
1967.392320  	0.011994 
1969.321136  	0.010874 
1971.249952  	0.011143 
1973.178768  	0.012408 
1975.107584  	0.010972 
1977.036400  	0.010984 
1978.965216  	0.013052 
1980.894032  	0.013770 
1982.822848  	0.011531 
1984.751664  	0.011526 
1986.680480  	0.011579 
1988.609296  	0.011336 
1990.538112  	0.010889 
1992.466928  	0.011315 
1994.395744  	0.011534 
1996.324560  	0.011562 
1998.253376  	0.011070 
2000.182192  	0.011280 
2002.111008  	0.010847 
2004.039824  	0.010974 
2005.968640  	0.010777 
2007.897456  	0.011790 
2009.826272  	0.011250 
2011.755088  	0.010724 
2013.683904  	0.011216 
2015.612720  	0.012248 
2017.541536  	0.011761 
2019.470352  	0.011839 
2021.399168  	0.011886 
2023.327984  	0.012889 
2025.256800  	0.011914 
2027.185616  	0.010729 
2029.114432  	0.010331 
2031.043248  	0.012515 
2032.972064  	0.012275 
2034.900880  	0.012498 
2036.829696  	0.012216 
2038.758512  	0.011507 
2040.687328  	0.011346 
2042.616144  	0.011423 
2044.544960  	0.011122 
2046.473776  	0.011911 
2048.402592  	0.011708 
2050.331408  	0.012416 
2052.260224  	0.011720 
2054.189040  	0.011557 
2056.117856  	0.010832 
2058.046672  	0.010905 
2059.975488  	0.010986 
2061.904304  	0.011092 
2063.833120  	0.011739 
2065.761936  	0.012176 
2067.690752  	0.011177 
2069.619568  	0.010360 
2071.548384  	0.009549 
2073.477200  	0.010073 
2075.406016  	0.010812 
2077.334832  	0.011310 
2079.263648  	0.010965 
2081.192464  	0.011080 
2083.121280  	0.011582 
2085.050096  	0.011772 
2086.978912  	0.011123 
2088.907728  	0.010678 
2090.836544  	0.010072 
2092.765360  	0.010131 
2094.694176  	0.010453 
2096.622992  	0.010668 
2098.551808  	0.010092 
2100.480624  	0.010182 
2102.409440  	0.010218 
2104.338256  	0.010687 
2106.267072  	0.010456 
2108.195888  	0.010738 
2110.124704  	0.011303 
2112.053520  	0.011551 
2113.982336  	0.011237 
2115.911152  	0.011167 
2117.839968  	0.010569 
2119.768784  	0.010129 
2121.697600  	0.009861 
2123.626416  	0.009729 
2125.555232  	0.009719 
2127.484048  	0.009916 
2129.412864  	0.009373 
2131.341680  	0.008853 
2133.270496  	0.009297 
2135.199312  	0.009900 
2137.128128  	0.009854 
2139.056944  	0.010111 
2140.985760  	0.009758 
2142.914576  	0.010236 
2144.843392  	0.009824 
2146.772208  	0.010018 
2148.701024  	0.010145 
2150.629840  	0.010498 
2152.558656  	0.008781 
2154.487472  	0.007557 
2156.416288  	0.007230 
2158.345104  	0.010242 
2160.273920  	0.013028 
2162.202736  	0.013433 
2164.131552  	0.012633 
2166.060368  	0.013569 
2167.989184  	0.012966 
2169.918000  	0.011531 
2171.846816  	0.010872 
2173.775632  	0.011782 
2175.704448  	0.012089 
2177.633264  	0.012755 
2179.562080  	0.012060 
2181.490896  	0.011307 
2183.419712  	0.011329 
2185.348528  	0.012393 
2187.277344  	0.011973 
2189.206160  	0.011595 
2191.134976  	0.012687 
2193.063792  	0.014053 
2194.992608  	0.013470 
2196.921424  	0.012873 
2198.850240  	0.013319 
2200.779056  	0.013058 
2202.707872  	0.012826 
2204.636688  	0.013168 
2206.565504  	0.012802 
2208.494320  	0.012856 
2210.423136  	0.011589 
2212.351952  	0.011848 
2214.280768  	0.012603 
2216.209584  	0.012266 
2218.138400  	0.011896 
2220.067216  	0.011905 
2221.996032  	0.011878 
2223.924848  	0.011779 
2225.853664  	0.011843 
2227.782480  	0.012117 
2229.711296  	0.012445 
2231.640112  	0.012498 
2233.568928  	0.011860 
2235.497744  	0.011822 
2237.426560  	0.011339 
2239.355376  	0.011573 
2241.284192  	0.011382 
2243.213008  	0.011305 
2245.141824  	0.011440 
2247.070640  	0.011153 
2248.999456  	0.011171 
2250.928272  	0.011674 
2252.857088  	0.011656 
2254.785904  	0.011240 
2256.714720  	0.011677 
2258.643536  	0.012505 
2260.572352  	0.012114 
2262.501168  	0.011849 
2264.429984  	0.011894 
2266.358800  	0.012081 
2268.287616  	0.011861 
2270.216432  	0.011762 
2272.145248  	0.011601 
2274.074064  	0.011870 
2276.002880  	0.011821 
2277.931696  	0.012425 
2279.860512  	0.013044 
2281.789328  	0.013207 
2283.718144  	0.012982 
2285.646960  	0.013100 
2287.575776  	0.013053 
2289.504592  	0.012720 
2291.433408  	0.012287 
2293.362224  	0.012343 
2295.291040  	0.012404 
2297.219856  	0.012764 
2299.148672  	0.012876 
2301.077488  	0.012698 
2303.006304  	0.012635 
2304.935120  	0.012614 
2306.863936  	0.012402 
2308.792752  	0.012507 
2310.721568  	0.012441 
2312.650384  	0.012002 
2314.579200  	0.011676 
2316.508016  	0.011667 
2318.436832  	0.011185 
2320.365648  	0.010716 
2322.294464  	0.010196 
2324.223280  	0.009086 
2326.152096  	0.007403 
2328.080912  	0.006530 
2330.009728  	0.005871 
2331.938544  	0.005153 
2333.867360  	0.004242 
2335.796176  	0.003569 
2337.724992  	0.003215 
2339.653808  	0.003057 
2341.582624  	0.003163 
2343.511440  	0.004500 
2345.440256  	0.006111 
2347.369072  	0.007987 
2349.297888  	0.008469 
2351.226704  	0.007009 
2353.155520  	0.004973 
2355.084336  	0.002819 
2357.013152  	0.001189 
2358.941968  	0.000359 
2360.870784  	-0.000267 
2362.799600  	0.000607 
2364.728416  	0.001636 
2366.657232  	0.002840 
2368.586048  	0.004176 
2370.514864  	0.006170 
2372.443680  	0.007931 
2374.372496  	0.009705 
2376.301312  	0.010987 
2378.230128  	0.012036 
2380.158944  	0.012603 
2382.087760  	0.012892 
2384.016576  	0.013102 
2385.945392  	0.013112 
2387.874208  	0.012722 
2389.803024  	0.012719 
2391.731840  	0.012757 
2393.660656  	0.012851 
2395.589472  	0.012949 
2397.518288  	0.013226 
2399.447104  	0.013238 
2401.375920  	0.013082 
2403.304736  	0.013083 
2405.233552  	0.013233 
2407.162368  	0.013440 
2409.091184  	0.013377 
2411.020000  	0.013396 
2412.948816  	0.013585 
2414.877632  	0.013563 
2416.806448  	0.013550 
2418.735264  	0.013694 
2420.664080  	0.013698 
2422.592896  	0.013554 
2424.521712  	0.013662 
2426.450528  	0.013737 
2428.379344  	0.013732 
2430.308160  	0.013677 
2432.236976  	0.013906 
2434.165792  	0.014287 
2436.094608  	0.014660 
2438.023424  	0.014762 
2439.952240  	0.014722 
2441.881056  	0.014810 
2443.809872  	0.014980 
2445.738688  	0.014937 
2447.667504  	0.014666 
2449.596320  	0.014568 
2451.525136  	0.014719 
2453.453952  	0.014890 
2455.382768  	0.015101 
2457.311584  	0.015180 
2459.240400  	0.015088 
2461.169216  	0.015051 
2463.098032  	0.015092 
2465.026848  	0.015033 
2466.955664  	0.015077 
2468.884480  	0.015148 
2470.813296  	0.015252 
2472.742112  	0.015296 
2474.670928  	0.015435 
2476.599744  	0.015504 
2478.528560  	0.015510 
2480.457376  	0.015657 
2482.386192  	0.015601 
2484.315008  	0.015714 
2486.243824  	0.015842 
2488.172640  	0.015650 
2490.101456  	0.015832 
2492.030272  	0.016144 
2493.959088  	0.016064 
2495.887904  	0.015948 
2497.816720  	0.016175 
2499.745536  	0.016246 
2501.674352  	0.016405 
2503.603168  	0.016516 
2505.531984  	0.016702 
2507.460800  	0.016902 
2509.389616  	0.016927 
2511.318432  	0.016563 
2513.247248  	0.016598 
2515.176064  	0.016954 
2517.104880  	0.017368 
2519.033696  	0.017509 
2520.962512  	0.017438 
2522.891328  	0.017507 
2524.820144  	0.017479 
2526.748960  	0.017457 
2528.677776  	0.017624 
2530.606592  	0.017708 
2532.535408  	0.017914 
2534.464224  	0.018190 
2536.393040  	0.018194 
2538.321856  	0.017888 
2540.250672  	0.017872 
2542.179488  	0.017888 
2544.108304  	0.018171 
2546.037120  	0.018267 
2547.965936  	0.018617 
2549.894752  	0.018706 
2551.823568  	0.018723 
2553.752384  	0.018897 
2555.681200  	0.019084 
2557.610016  	0.019118 
2559.538832  	0.018948 
2561.467648  	0.019009 
2563.396464  	0.019430 
2565.325280  	0.019797 
2567.254096  	0.019960 
2569.182912  	0.019821 
2571.111728  	0.019581 
2573.040544  	0.019450 
2574.969360  	0.019564 
2576.898176  	0.019738 
2578.826992  	0.019914 
2580.755808  	0.019896 
2582.684624  	0.020046 
2584.613440  	0.020192 
2586.542256  	0.020383 
2588.471072  	0.020563 
2590.399888  	0.020466 
2592.328704  	0.020347 
2594.257520  	0.020472 
2596.186336  	0.020778 
2598.115152  	0.021006 
2600.043968  	0.020903 
2601.972784  	0.020913 
2603.901600  	0.021174 
2605.830416  	0.021359 
2607.759232  	0.021283 
2609.688048  	0.021561 
2611.616864  	0.021769 
2613.545680  	0.021795 
2615.474496  	0.021814 
2617.403312  	0.021803 
2619.332128  	0.022031 
2621.260944  	0.022226 
2623.189760  	0.022172 
2625.118576  	0.022262 
2627.047392  	0.022526 
2628.976208  	0.022852 
2630.905024  	0.022936 
2632.833840  	0.023070 
2634.762656  	0.023128 
2636.691472  	0.023125 
2638.620288  	0.023134 
2640.549104  	0.023261 
2642.477920  	0.023416 
2644.406736  	0.023542 
2646.335552  	0.023787 
2648.264368  	0.024052 
2650.193184  	0.024075 
2652.122000  	0.024202 
2654.050816  	0.024412 
2655.979632  	0.024447 
2657.908448  	0.024438 
2659.837264  	0.024598 
2661.766080  	0.024659 
2663.694896  	0.024742 
2665.623712  	0.024702 
2667.552528  	0.024639 
2669.481344  	0.024812 
2671.410160  	0.025102 
2673.338976  	0.025254 
2675.267792  	0.025442 
2677.196608  	0.025640 
2679.125424  	0.025783 
2681.054240  	0.025840 
2682.983056  	0.025874 
2684.911872  	0.026032 
2686.840688  	0.026261 
2688.769504  	0.026351 
2690.698320  	0.026384 
2692.627136  	0.026494 
2694.555952  	0.026549 
2696.484768  	0.026480 
2698.413584  	0.026583 
2700.342400  	0.026709 
2702.271216  	0.026969 
2704.200032  	0.027250 
2706.128848  	0.027450 
2708.057664  	0.027553 
2709.986480  	0.027645 
2711.915296  	0.027707 
2713.844112  	0.027846 
2715.772928  	0.027966 
2717.701744  	0.028096 
2719.630560  	0.028268 
2721.559376  	0.028379 
2723.488192  	0.028526 
2725.417008  	0.028772 
2727.345824  	0.028876 
2729.274640  	0.028911 
2731.203456  	0.028983 
2733.132272  	0.029193 
2735.061088  	0.029439 
2736.989904  	0.029543 
2738.918720  	0.029540 
2740.847536  	0.029574 
2742.776352  	0.029707 
2744.705168  	0.029860 
2746.633984  	0.029915 
2748.562800  	0.030042 
2750.491616  	0.030141 
2752.420432  	0.030190 
2754.349248  	0.030302 
2756.278064  	0.030432 
2758.206880  	0.030369 
2760.135696  	0.030545 
2762.064512  	0.030640 
2763.993328  	0.030752 
2765.922144  	0.030931 
2767.850960  	0.030997 
2769.779776  	0.030978 
2771.708592  	0.031127 
2773.637408  	0.031206 
2775.566224  	0.031207 
2777.495040  	0.031311 
2779.423856  	0.031424 
2781.352672  	0.031495 
2783.281488  	0.031695 
2785.210304  	0.031771 
2787.139120  	0.031911 
2789.067936  	0.032120 
2790.996752  	0.032233 
2792.925568  	0.032389 
2794.854384  	0.032479 
2796.783200  	0.032436 
2798.712016  	0.032416 
2800.640832  	0.032464 
2802.569648  	0.032675 
2804.498464  	0.032819 
2806.427280  	0.032923 
2808.356096  	0.033057 
2810.284912  	0.033261 
2812.213728  	0.033240 
2814.142544  	0.033314 
2816.071360  	0.033515 
2818.000176  	0.033544 
2819.928992  	0.033431 
2821.857808  	0.033532 
2823.786624  	0.033684 
2825.715440  	0.033609 
2827.644256  	0.033446 
2829.573072  	0.033512 
2831.501888  	0.033387 
2833.430704  	0.033236 
2835.359520  	0.033283 
2837.288336  	0.033290 
2839.217152  	0.033258 
2841.145968  	0.033137 
2843.074784  	0.033032 
2845.003600  	0.033081 
2846.932416  	0.033122 
2848.861232  	0.033114 
2850.790048  	0.033123 
2852.718864  	0.033144 
2854.647680  	0.033120 
2856.576496  	0.033228 
2858.505312  	0.033202 
2860.434128  	0.033115 
2862.362944  	0.033058 
2864.291760  	0.032950 
2866.220576  	0.032974 
2868.149392  	0.033262 
2870.078208  	0.033657 
2872.007024  	0.033896 
2873.935840  	0.034142 
2875.864656  	0.034571 
2877.793472  	0.035167 
2879.722288  	0.035584 
2881.651104  	0.035580 
2883.579920  	0.035706 
2885.508736  	0.035950 
2887.437552  	0.036213 
2889.366368  	0.036380 
2891.295184  	0.036462 
2893.224000  	0.036479 
2895.152816  	0.036583 
2897.081632  	0.036435 
2899.010448  	0.036107 
2900.939264  	0.035936 
2902.868080  	0.036286 
2904.796896  	0.036746 
2906.725712  	0.036953 
2908.654528  	0.037053 
2910.583344  	0.037423 
2912.512160  	0.037996 
2914.440976  	0.038475 
2916.369792  	0.038815 
2918.298608  	0.039355 
2920.227424  	0.039943 
2922.156240  	0.040534 
2924.085056  	0.041190 
2926.013872  	0.041916 
2927.942688  	0.042739 
2929.871504  	0.043448 
2931.800320  	0.044133 
2933.729136  	0.044682 
2935.657952  	0.045001 
2937.586768  	0.045441 
2939.515584  	0.045760 
2941.444400  	0.045945 
2943.373216  	0.046261 
2945.302032  	0.046395 
2947.230848  	0.046285 
2949.159664  	0.046184 
2951.088480  	0.046028 
2953.017296  	0.045877 
2954.946112  	0.045431 
2956.874928  	0.044968 
2958.803744  	0.044671 
2960.732560  	0.044551 
2962.661376  	0.044350 
2964.590192  	0.043810 
2966.519008  	0.043343 
2968.447824  	0.042822 
2970.376640  	0.042408 
2972.305456  	0.042118 
2974.234272  	0.041937 
2976.163088  	0.041799 
2978.091904  	0.041756 
2980.020720  	0.041752 
2981.949536  	0.041669 
2983.878352  	0.041276 
2985.807168  	0.040784 
2987.735984  	0.040687 
2989.664800  	0.040954 
2991.593616  	0.041706 
2993.522432  	0.042002 
2995.451248  	0.042075 
2997.380064  	0.042445 
2999.308880  	0.042889 
3001.237696  	0.043278 
3003.166512  	0.043696 
3005.095328  	0.044188 
3007.024144  	0.044684 
3008.952960  	0.045048 
3010.881776  	0.045463 
3012.810592  	0.045829 
3014.739408  	0.046197 
3016.668224  	0.046665 
3018.597040  	0.047080 
3020.525856  	0.047455 
3022.454672  	0.047800 
3024.383488  	0.048151 
3026.312304  	0.048489 
3028.241120  	0.048760 
3030.169936  	0.048937 
3032.098752  	0.049283 
3034.027568  	0.049519 
3035.956384  	0.049679 
3037.885200  	0.049984 
3039.814016  	0.050361 
3041.742832  	0.050818 
3043.671648  	0.051158 
3045.600464  	0.051378 
3047.529280  	0.051575 
3049.458096  	0.051809 
3051.386912  	0.051898 
3053.315728  	0.052176 
3055.244544  	0.052657 
3057.173360  	0.053151 
3059.102176  	0.053537 
3061.030992  	0.053972 
3062.959808  	0.054356 
3064.888624  	0.054715 
3066.817440  	0.055032 
3068.746256  	0.055364 
3070.675072  	0.055642 
3072.603888  	0.056091 
3074.532704  	0.056671 
3076.461520  	0.057109 
3078.390336  	0.057308 
3080.319152  	0.057645 
3082.247968  	0.058123 
3084.176784  	0.058655 
3086.105600  	0.058783 
3088.034416  	0.058930 
3089.963232  	0.059401 
3091.892048  	0.059879 
3093.820864  	0.060103 
3095.749680  	0.060381 
3097.678496  	0.060612 
3099.607312  	0.060978 
3101.536128  	0.061382 
3103.464944  	0.061753 
3105.393760  	0.062142 
3107.322576  	0.062418 
3109.251392  	0.062698 
3111.180208  	0.063075 
3113.109024  	0.063273 
3115.037840  	0.063318 
3116.966656  	0.063500 
3118.895472  	0.063729 
3120.824288  	0.063810 
3122.753104  	0.064175 
3124.681920  	0.064654 
3126.610736  	0.064684 
3128.539552  	0.064776 
3130.468368  	0.064970 
3132.397184  	0.065153 
3134.326000  	0.065495 
3136.254816  	0.065703 
3138.183632  	0.065843 
3140.112448  	0.065960 
3142.041264  	0.066056 
3143.970080  	0.066314 
3145.898896  	0.066609 
3147.827712  	0.066900 
3149.756528  	0.067217 
3151.685344  	0.067525 
3153.614160  	0.067870 
3155.542976  	0.068054 
3157.471792  	0.068285 
3159.400608  	0.068563 
3161.329424  	0.068837 
3163.258240  	0.069140 
3165.187056  	0.069516 
3167.115872  	0.069765 
3169.044688  	0.070027 
3170.973504  	0.070086 
3172.902320  	0.070075 
3174.831136  	0.070169 
3176.759952  	0.070329 
3178.688768  	0.070490 
3180.617584  	0.070653 
3182.546400  	0.070595 
3184.475216  	0.070804 
3186.404032  	0.070962 
3188.332848  	0.070933 
3190.261664  	0.071250 
3192.190480  	0.071378 
3194.119296  	0.071084 
3196.048112  	0.070954 
3197.976928  	0.071172 
3199.905744  	0.071276 
3201.834560  	0.071343 
3203.763376  	0.071364 
3205.692192  	0.071280 
3207.621008  	0.071040 
3209.549824  	0.070897 
3211.478640  	0.070680 
3213.407456  	0.070495 
3215.336272  	0.070522 
3217.265088  	0.070289 
3219.193904  	0.069845 
3221.122720  	0.069457 
3223.051536  	0.069298 
3224.980352  	0.069187 
3226.909168  	0.068822 
3228.837984  	0.068583 
3230.766800  	0.068586 
3232.695616  	0.068555 
3234.624432  	0.068375 
3236.553248  	0.068249 
3238.482064  	0.068241 
3240.410880  	0.068128 
3242.339696  	0.068027 
3244.268512  	0.067996 
3246.197328  	0.067972 
3248.126144  	0.068013 
3250.054960  	0.068084 
3251.983776  	0.067939 
3253.912592  	0.067906 
3255.841408  	0.067918 
3257.770224  	0.067980 
3259.699040  	0.068178 
3261.627856  	0.068402 
3263.556672  	0.068566 
3265.485488  	0.068367 
3267.414304  	0.068407 
3269.343120  	0.068624 
3271.271936  	0.068823 
3273.200752  	0.068996 
3275.129568  	0.068868 
3277.058384  	0.068755 
3278.987200  	0.068921 
3280.916016  	0.068933 
3282.844832  	0.068924 
3284.773648  	0.069192 
3286.702464  	0.069324 
3288.631280  	0.069452 
3290.560096  	0.069573 
3292.488912  	0.069686 
3294.417728  	0.069775 
3296.346544  	0.069907 
3298.275360  	0.069996 
3300.204176  	0.070229 
3302.132992  	0.070281 
3304.061808  	0.070507 
3305.990624  	0.070838 
3307.919440  	0.070921 
3309.848256  	0.071001 
3311.777072  	0.071029 
3313.705888  	0.071195 
3315.634704  	0.071518 
3317.563520  	0.071747 
3319.492336  	0.071852 
3321.421152  	0.071813 
3323.349968  	0.071939 
3325.278784  	0.072289 
3327.207600  	0.072396 
3329.136416  	0.072205 
3331.065232  	0.071969 
3332.994048  	0.072092 
3334.922864  	0.072132 
3336.851680  	0.071935 
3338.780496  	0.071869 
3340.709312  	0.071814 
3342.638128  	0.071668 
3344.566944  	0.071530 
3346.495760  	0.071293 
3348.424576  	0.071068 
3350.353392  	0.070967 
3352.282208  	0.070705 
3354.211024  	0.070474 
3356.139840  	0.070269 
3358.068656  	0.069930 
3359.997472  	0.069490 
3361.926288  	0.069185 
3363.855104  	0.068864 
3365.783920  	0.068544 
3367.712736  	0.068380 
3369.641552  	0.067942 
3371.570368  	0.067631 
3373.499184  	0.067360 
3375.428000  	0.066972 
3377.356816  	0.066714 
3379.285632  	0.066435 
3381.214448  	0.066141 
3383.143264  	0.065887 
3385.072080  	0.065713 
3387.000896  	0.065257 
3388.929712  	0.064912 
3390.858528  	0.064543 
3392.787344  	0.064307 
3394.716160  	0.063974 
3396.644976  	0.063515 
3398.573792  	0.063189 
3400.502608  	0.062759 
3402.431424  	0.062293 
3404.360240  	0.061824 
3406.289056  	0.061553 
3408.217872  	0.061231 
3410.146688  	0.060797 
3412.075504  	0.060674 
3414.004320  	0.060487 
3415.933136  	0.059807 
3417.861952  	0.059277 
3419.790768  	0.059175 
3421.719584  	0.058811 
3423.648400  	0.058227 
3425.577216  	0.058066 
3427.506032  	0.057850 
3429.434848  	0.057159 
3431.363664  	0.056768 
3433.292480  	0.056577 
3435.221296  	0.056483 
3437.150112  	0.056139 
3439.078928  	0.055619 
3441.007744  	0.055169 
3442.936560  	0.054953 
3444.865376  	0.054495 
3446.794192  	0.053840 
3448.723008  	0.053536 
3450.651824  	0.053054 
3452.580640  	0.052409 
3454.509456  	0.051987 
3456.438272  	0.051569 
3458.367088  	0.051221 
3460.295904  	0.050914 
3462.224720  	0.050388 
3464.153536  	0.049803 
3466.082352  	0.049437 
3468.011168  	0.049008 
3469.939984  	0.048388 
3471.868800  	0.047776 
3473.797616  	0.047299 
3475.726432  	0.046768 
3477.655248  	0.046183 
3479.584064  	0.045742 
3481.512880  	0.045285 
3483.441696  	0.044725 
3485.370512  	0.044035 
3487.299328  	0.043708 
3489.228144  	0.043507 
3491.156960  	0.042933 
3493.085776  	0.042244 
3495.014592  	0.041702 
3496.943408  	0.041395 
3498.872224  	0.040950 
3500.801040  	0.040589 
3502.729856  	0.040066 
3504.658672  	0.039499 
3506.587488  	0.038811 
3508.516304  	0.038523 
3510.445120  	0.038411 
3512.373936  	0.038042 
3514.302752  	0.037624 
3516.231568  	0.037149 
3518.160384  	0.036631 
3520.089200  	0.036328 
3522.018016  	0.036037 
3523.946832  	0.035916 
3525.875648  	0.035429 
3527.804464  	0.034816 
3529.733280  	0.034426 
3531.662096  	0.033949 
3533.590912  	0.033505 
3535.519728  	0.033370 
3537.448544  	0.033236 
3539.377360  	0.032744 
3541.306176  	0.032054 
3543.234992  	0.031659 
3545.163808  	0.031671 
3547.092624  	0.031271 
3549.021440  	0.030541 
3550.950256  	0.030005 
3552.879072  	0.029954 
3554.807888  	0.029779 
3556.736704  	0.029195 
3558.665520  	0.028772 
3560.594336  	0.028590 
3562.523152  	0.028061 
3564.451968  	0.027412 
3566.380784  	0.027187 
3568.309600  	0.027134 
3570.238416  	0.026555 
3572.167232  	0.025822 
3574.096048  	0.025443 
3576.024864  	0.025028 
3577.953680  	0.024590 
3579.882496  	0.024364 
3581.811312  	0.023961 
3583.740128  	0.023255 
3585.668944  	0.022523 
3587.597760  	0.022360 
3589.526576  	0.022052 
3591.455392  	0.021078 
3593.384208  	0.020599 
3595.313024  	0.020173 
3597.241840  	0.019741 
3599.170656  	0.019077 
3601.099472  	0.018728 
3603.028288  	0.018508 
3604.957104  	0.017953 
3606.885920  	0.017048 
3608.814736  	0.016863 
3610.743552  	0.016311 
3612.672368  	0.015386 
3614.601184  	0.014855 
3616.530000  	0.013994 
3618.458816  	0.013206 
3620.387632  	0.013278 
3622.316448  	0.013203 
3624.245264  	0.012741 
3626.174080  	0.011390 
3628.102896  	0.010322 
3630.031712  	0.011078 
3631.960528  	0.010953 
3633.889344  	0.010344 
3635.818160  	0.009826 
3637.746976  	0.009322 
3639.675792  	0.009181 
3641.604608  	0.008733 
3643.533424  	0.007845 
3645.462240  	0.006450 
3647.391056  	0.004710 
3649.319872  	0.003880 
3651.248688  	0.005226 
3653.177504  	0.005639 
3655.106320  	0.004694 
3657.035136  	0.004660 
3658.963952  	0.004782 
3660.892768  	0.004324 
3662.821584  	0.003875 
3664.750400  	0.003629 
3666.679216  	0.002832 
3668.608032  	0.001157 
3670.536848  	0.000956 
3672.465664  	0.001113 
3674.394480  	-0.000396 
3676.323296  	0.000454 
3678.252112  	0.002091 
3680.180928  	0.002437 
3682.109744  	0.002339 
3684.038560  	0.002099 
3685.967376  	0.001157 
3687.896192  	-0.000203 
3689.825008  	-0.000398 
3691.753824  	0.000538 
3693.682640  	0.001309 
3695.611456  	0.001433 
3697.540272  	0.001475 
3699.469088  	0.001123 
3701.397904  	0.001075 
3703.326720  	0.001556 
3705.255536  	0.001813 
3707.184352  	0.001153 
3709.113168  	0.000089 
3711.041984  	-0.000011 
3712.970800  	0.001338 
3714.899616  	0.002069 
3716.828432  	0.001884 
3718.757248  	0.001379 
3720.686064  	0.000960 
3722.614880  	0.001362 
3724.543696  	0.001724 
3726.472512  	0.001858 
3728.401328  	0.001569 
3730.330144  	0.000497 
3732.258960  	-0.000307 
3734.187776  	-0.000060 
3736.116592  	0.000948 
3738.045408  	0.000987 
3739.974224  	0.000790 
3741.903040  	0.000506 
3743.831856  	0.000572 
3745.760672  	0.001209 
3747.689488  	-0.000193 
3749.618304  	-0.001268 
3751.547120  	-0.000412 
3753.475936  	0.001579 
3755.404752  	0.001712 
3757.333568  	0.001133 
3759.262384  	0.001199 
3761.191200  	0.002142 
3763.120016  	0.002323 
3765.048832  	0.001958 
3766.977648  	0.001618 
3768.906464  	0.001026 
3770.835280  	0.001564 
3772.764096  	0.002383 
3774.692912  	0.002410 
3776.621728  	0.001893 
3778.550544  	0.001434 
3780.479360  	0.002012 
3782.408176  	0.002233 
3784.336992  	0.001967 
3786.265808  	0.002184 
3788.194624  	0.002417 
3790.123440  	0.002293 
3792.052256  	0.002131 
3793.981072  	0.001702 
3795.909888  	0.001251 
3797.838704  	0.001295 
3799.767520  	0.000295 
3801.696336  	0.000239 
3803.625152  	0.001225 
3805.553968  	0.000634 
3807.482784  	0.001173 
3809.411600  	0.002160 
3811.340416  	0.002426 
3813.269232  	0.001780 
3815.198048  	0.000733 
3817.126864  	0.000799 
3819.055680  	-0.000017 
3820.984496  	-0.000246 
3822.913312  	0.001371 
3824.842128  	0.001554 
3826.770944  	0.001511 
3828.699760  	0.001419 
3830.628576  	0.000769 
3832.557392  	0.000787 
3834.486208  	0.000626 
3836.415024  	0.000184 
3838.343840  	0.000537 
3840.272656  	0.000950 
3842.201472  	0.001164 
3844.130288  	0.001613 
3846.059104  	0.002093 
3847.987920  	0.001893 
3849.916736  	0.000993 
3851.845552  	-0.000503 
3853.774368  	0.000363 
3855.703184  	0.001789 
3857.632000  	0.001798 
3859.560816  	0.001656 
3861.489632  	0.001255 
3863.418448  	0.000937 
3865.347264  	0.001173 
3867.276080  	0.001166 
3869.204896  	0.000935 
3871.133712  	0.001899 
3873.062528  	0.001700 
3874.991344  	0.002120 
3876.920160  	0.002087 
3878.848976  	0.001529 
3880.777792  	0.001994 
3882.706608  	0.002226 
3884.635424  	0.001923 
3886.564240  	0.002438 
3888.493056  	0.002169 
3890.421872  	0.001756 
3892.350688  	0.002226 
3894.279504  	0.002363 
3896.208320  	0.002219 
3898.137136  	0.002166 
3900.065952  	0.002026 
3901.994768  	0.001850 
3903.923584  	0.002188 
3905.852400  	0.002778 
3907.781216  	0.002716 
3909.710032  	0.002569 
3911.638848  	0.002657 
3913.567664  	0.002719 
3915.496480  	0.002668 
3917.425296  	0.003082 
3919.354112  	0.003076 
3921.282928  	0.002927 
3923.211744  	0.002677 
3925.140560  	0.002702 
3927.069376  	0.002536 
3928.998192  	0.002402 
3930.927008  	0.002862 
3932.855824  	0.003478 
3934.784640  	0.003315 
3936.713456  	0.003124 
3938.642272  	0.003042 
3940.571088  	0.002827 
3942.499904  	0.002894 
3944.428720  	0.003005 
3946.357536  	0.002813 
3948.286352  	0.002927 
3950.215168  	0.002816 
3952.143984  	0.002556 
3954.072800  	0.002626 
3956.001616  	0.002739 
3957.930432  	0.002872 
3959.859248  	0.003075 
3961.788064  	0.003000 
3963.716880  	0.003052 
3965.645696  	0.002980 
3967.574512  	0.003059 
3969.503328  	0.003039 
3971.432144  	0.002738 
3973.360960  	0.002572 
3975.289776  	0.002836 
3977.218592  	0.003138 
3979.147408  	0.003096 
3981.076224  	0.002975 
3983.005040  	0.002985 
3984.933856  	0.002900 
3986.862672  	0.002863 
3988.791488  	0.002937 
3990.720304  	0.003093 
3992.649120  	0.003125 
3994.577936  	0.003106 
3996.506752  	0.003155 
3998.435568  	0.003182 
4000.364384  	0.003025 