##TITLE=No Description
##DATA TYPE=INFRARED SPECTRUM
##XUNITS=1/CM
##YUNITS=Abs
399.264912  	0.650683 
401.193728  	0.590871 
403.122544  	0.558699 
405.051360  	0.572561 
406.980176  	0.563115 
408.908992  	0.521314 
410.837808  	0.521945 
412.766624  	0.556306 
414.695440  	0.582208 
416.624256  	0.549861 
418.553072  	0.520250 
420.481888  	0.548074 
422.410704  	0.562945 
424.339520  	0.525508 
426.268336  	0.526044 
428.197152  	0.523505 
430.125968  	0.500660 
432.054784  	0.497843 
433.983600  	0.511412 
435.912416  	0.504354 
437.841232  	0.501214 
439.770048  	0.494392 
441.698864  	0.510629 
443.627680  	0.520790 
445.556496  	0.498622 
447.485312  	0.482410 
449.414128  	0.497103 
451.342944  	0.490000 
453.271760  	0.493263 
455.200576  	0.495937 
457.129392  	0.483350 
459.058208  	0.470795 
460.987024  	0.485354 
462.915840  	0.489418 
464.844656  	0.495694 
466.773472  	0.490739 
468.702288  	0.489940 
470.631104  	0.505981 
472.559920  	0.509976 
474.488736  	0.491803 
476.417552  	0.492273 
478.346368  	0.495930 
480.275184  	0.490125 
482.204000  	0.493895 
484.132816  	0.500412 
486.061632  	0.486990 
487.990448  	0.479552 
489.919264  	0.483610 
491.848080  	0.485258 
493.776896  	0.480211 
495.705712  	0.473087 
497.634528  	0.468623 
499.563344  	0.474046 
501.492160  	0.475728 
503.420976  	0.475346 
505.349792  	0.475618 
507.278608  	0.473594 
509.207424  	0.471794 
511.136240  	0.480679 
513.065056  	0.481090 
514.993872  	0.477993 
516.922688  	0.477113 
518.851504  	0.480362 
520.780320  	0.481783 
522.709136  	0.480357 
524.637952  	0.474832 
526.566768  	0.476704 
528.495584  	0.474760 
530.424400  	0.469551 
532.353216  	0.463977 
534.282032  	0.460884 
536.210848  	0.457360 
538.139664  	0.451028 
540.068480  	0.449016 
541.997296  	0.447415 
543.926112  	0.440305 
545.854928  	0.434453 
547.783744  	0.435697 
549.712560  	0.433268 
551.641376  	0.428055 
553.570192  	0.423068 
555.499008  	0.421353 
557.427824  	0.419047 
559.356640  	0.413555 
561.285456  	0.409874 
563.214272  	0.407571 
565.143088  	0.403403 
567.071904  	0.398687 
569.000720  	0.394731 
570.929536  	0.391002 
572.858352  	0.386919 
574.787168  	0.383707 
576.715984  	0.381871 
578.644800  	0.377773 
580.573616  	0.372914 
582.502432  	0.369173 
584.431248  	0.367027 
586.360064  	0.364786 
588.288880  	0.361554 
590.217696  	0.358876 
592.146512  	0.358047 
594.075328  	0.355309 
596.004144  	0.352519 
597.932960  	0.352096 
599.861776  	0.351804 
601.790592  	0.350679 
603.719408  	0.350045 
605.648224  	0.348775 
607.577040  	0.347630 
609.505856  	0.346205 
611.434672  	0.346727 
613.363488  	0.345647 
615.292304  	0.343090 
617.221120  	0.340146 
619.149936  	0.339376 
621.078752  	0.337462 
623.007568  	0.335339 
624.936384  	0.332772 
626.865200  	0.332458 
628.794016  	0.331228 
630.722832  	0.329678 
632.651648  	0.329523 
634.580464  	0.329545 
636.509280  	0.329287 
638.438096  	0.328986 
640.366912  	0.329394 
642.295728  	0.328689 
644.224544  	0.325171 
646.153360  	0.321186 
648.082176  	0.318313 
650.010992  	0.315196 
651.939808  	0.310914 
653.868624  	0.306923 
655.797440  	0.303879 
657.726256  	0.300735 
659.655072  	0.296217 
661.583888  	0.292869 
663.512704  	0.289345 
665.441520  	0.285163 
667.370336  	0.282121 
669.299152  	0.277406 
671.227968  	0.275447 
673.156784  	0.274252 
675.085600  	0.271875 
677.014416  	0.270030 
678.943232  	0.268948 
680.872048  	0.266636 
682.800864  	0.265496 
684.729680  	0.265265 
686.658496  	0.262969 
688.587312  	0.260617 
690.516128  	0.259373 
692.444944  	0.258617 
694.373760  	0.257328 
696.302576  	0.255163 
698.231392  	0.252816 
700.160208  	0.251044 
702.089024  	0.248671 
704.017840  	0.246487 
705.946656  	0.244235 
707.875472  	0.241926 
709.804288  	0.240083 
711.733104  	0.238734 
713.661920  	0.237461 
715.590736  	0.236701 
717.519552  	0.236610 
719.448368  	0.237856 
721.377184  	0.239396 
723.306000  	0.240454 
725.234816  	0.240976 
727.163632  	0.239825 
729.092448  	0.237171 
731.021264  	0.234385 
732.950080  	0.231512 
734.878896  	0.228691 
736.807712  	0.225845 
738.736528  	0.224132 
740.665344  	0.222967 
742.594160  	0.221552 
744.522976  	0.219939 
746.451792  	0.218844 
748.380608  	0.218531 
750.309424  	0.218286 
752.238240  	0.217646 
754.167056  	0.217758 
756.095872  	0.217204 
758.024688  	0.216024 
759.953504  	0.215853 
761.882320  	0.216576 
763.811136  	0.216703 
765.739952  	0.216164 
767.668768  	0.215489 
769.597584  	0.215073 
771.526400  	0.215516 
773.455216  	0.217692 
775.384032  	0.221015 
777.312848  	0.225716 
779.241664  	0.229824 
781.170480  	0.230667 
783.099296  	0.228206 
785.028112  	0.222923 
786.956928  	0.216394 
788.885744  	0.211050 
790.814560  	0.207805 
792.743376  	0.205867 
794.672192  	0.204062 
796.601008  	0.203067 
798.529824  	0.201842 
800.458640  	0.198781 
802.387456  	0.195325 
804.316272  	0.193816 
806.245088  	0.193809 
808.173904  	0.193668 
810.102720  	0.193714 
812.031536  	0.194365 
813.960352  	0.194483 
815.889168  	0.194634 
817.817984  	0.195028 
819.746800  	0.195498 
821.675616  	0.195587 
823.604432  	0.195220 
825.533248  	0.194502 
827.462064  	0.194007 
829.390880  	0.192510 
831.319696  	0.191074 
833.248512  	0.189969 
835.177328  	0.188614 
837.106144  	0.185976 
839.034960  	0.182975 
840.963776  	0.180343 
842.892592  	0.177760 
844.821408  	0.174819 
846.750224  	0.171947 
848.679040  	0.169473 
850.607856  	0.167330 
852.536672  	0.165699 
854.465488  	0.163966 
856.394304  	0.162727 
858.323120  	0.161539 
860.251936  	0.159856 
862.180752  	0.157954 
864.109568  	0.156193 
866.038384  	0.154508 
867.967200  	0.153096 
869.896016  	0.151788 
871.824832  	0.150643 
873.753648  	0.149942 
875.682464  	0.150088 
877.611280  	0.150825 
879.540096  	0.151706 
881.468912  	0.152567 
883.397728  	0.153329 
885.326544  	0.153862 
887.255360  	0.153825 
889.184176  	0.153337 
891.112992  	0.152436 
893.041808  	0.150827 
894.970624  	0.148523 
896.899440  	0.145747 
898.828256  	0.142357 
900.757072  	0.138754 
902.685888  	0.135516 
904.614704  	0.133429 
906.543520  	0.132702 
908.472336  	0.133653 
910.401152  	0.135966 
912.329968  	0.139042 
914.258784  	0.142495 
916.187600  	0.145601 
918.116416  	0.147861 
920.045232  	0.149168 
921.974048  	0.149013 
923.902864  	0.148207 
925.831680  	0.147260 
927.760496  	0.146323 
929.689312  	0.145558 
931.618128  	0.145808 
933.546944  	0.146464 
935.475760  	0.147134 
937.404576  	0.147956 
939.333392  	0.149194 
941.262208  	0.150935 
943.191024  	0.153736 
945.119840  	0.158027 
947.048656  	0.163255 
948.977472  	0.169942 
950.906288  	0.177803 
952.835104  	0.185954 
954.763920  	0.193975 
956.692736  	0.201649 
958.621552  	0.208298 
960.550368  	0.212526 
962.479184  	0.214532 
964.408000  	0.213459 
966.336816  	0.209656 
968.265632  	0.202946 
970.194448  	0.194296 
972.123264  	0.184136 
974.052080  	0.173450 
975.980896  	0.163208 
977.909712  	0.153974 
979.838528  	0.146030 
981.767344  	0.139623 
983.696160  	0.135182 
985.624976  	0.133394 
987.553792  	0.134120 
989.482608  	0.137092 
991.411424  	0.142304 
993.340240  	0.149263 
995.269056  	0.157554 
997.197872  	0.166407 
999.126688  	0.175112 
1001.055504  	0.183546 
1002.984320  	0.191676 
1004.913136  	0.199283 
1006.841952  	0.205867 
1008.770768  	0.211207 
1010.699584  	0.215234 
1012.628400  	0.217985 
1014.557216  	0.219888 
1016.486032  	0.221012 
1018.414848  	0.221628 
1020.343664  	0.222204 
1022.272480  	0.222387 
1024.201296  	0.222645 
1026.130112  	0.222840 
1028.058928  	0.223754 
1029.987744  	0.225190 
1031.916560  	0.227874 
1033.845376  	0.231266 
1035.774192  	0.235353 
1037.703008  	0.240166 
1039.631824  	0.246860 
1041.560640  	0.255223 
1043.489456  	0.265825 
1045.418272  	0.278693 
1047.347088  	0.293974 
1049.275904  	0.309242 
1051.204720  	0.323713 
1053.133536  	0.335118 
1055.062352  	0.343554 
1056.991168  	0.347834 
1058.919984  	0.348996 
1060.848800  	0.346637 
1062.777616  	0.343975 
1064.706432  	0.339577 
1066.635248  	0.333818 
1068.564064  	0.326304 
1070.492880  	0.318774 
1072.421696  	0.310931 
1074.350512  	0.304026 
1076.279328  	0.297935 
1078.208144  	0.293303 
1080.136960  	0.289576 
1082.065776  	0.286126 
1083.994592  	0.281401 
1085.923408  	0.276634 
1087.852224  	0.271485 
1089.781040  	0.265599 
1091.709856  	0.258176 
1093.638672  	0.249522 
1095.567488  	0.239282 
1097.496304  	0.229143 
1099.425120  	0.218738 
1101.353936  	0.208165 
1103.282752  	0.197472 
1105.211568  	0.186450 
1107.140384  	0.175610 
1109.069200  	0.165580 
1110.998016  	0.156253 
1112.926832  	0.147514 
1114.855648  	0.139418 
1116.784464  	0.131561 
1118.713280  	0.124354 
1120.642096  	0.117885 
1122.570912  	0.111493 
1124.499728  	0.105499 
1126.428544  	0.099813 
1128.357360  	0.094373 
1130.286176  	0.089619 
1132.214992  	0.085407 
1134.143808  	0.081698 
1136.072624  	0.078386 
1138.001440  	0.075346 
1139.930256  	0.072270 
1141.859072  	0.069753 
1143.787888  	0.067220 
1145.716704  	0.065073 
1147.645520  	0.063623 
1149.574336  	0.062814 
1151.503152  	0.062199 
1153.431968  	0.062031 
1155.360784  	0.062231 
1157.289600  	0.062752 
1159.218416  	0.063628 
1161.147232  	0.064997 
1163.076048  	0.066417 
1165.004864  	0.067976 
1166.933680  	0.069713 
1168.862496  	0.072111 
1170.791312  	0.074788 
1172.720128  	0.077374 
1174.648944  	0.080010 
1176.577760  	0.082857 
1178.506576  	0.085814 
1180.435392  	0.088799 
1182.364208  	0.091700 
1184.293024  	0.094981 
1186.221840  	0.098614 
1188.150656  	0.102465 
1190.079472  	0.106686 
1192.008288  	0.111602 
1193.937104  	0.117296 
1195.865920  	0.123899 
1197.794736  	0.130665 
1199.723552  	0.137854 
1201.652368  	0.145520 
1203.581184  	0.153072 
1205.510000  	0.160407 
1207.438816  	0.167766 
1209.367632  	0.174686 
1211.296448  	0.180924 
1213.225264  	0.186563 
1215.154080  	0.190938 
1217.082896  	0.194489 
1219.011712  	0.197016 
1220.940528  	0.199211 
1222.869344  	0.200823 
1224.798160  	0.201633 
1226.726976  	0.201632 
1228.655792  	0.201187 
1230.584608  	0.199856 
1232.513424  	0.197709 
1234.442240  	0.194455 
1236.371056  	0.190575 
1238.299872  	0.185900 
1240.228688  	0.180425 
1242.157504  	0.174038 
1244.086320  	0.167414 
1246.015136  	0.160422 
1247.943952  	0.153539 
1249.872768  	0.146521 
1251.801584  	0.139508 
1253.730400  	0.132712 
1255.659216  	0.126253 
1257.588032  	0.120106 
1259.516848  	0.114390 
1261.445664  	0.109079 
1263.374480  	0.104317 
1265.303296  	0.100148 
1267.232112  	0.096597 
1269.160928  	0.093982 
1271.089744  	0.092452 
1273.018560  	0.091916 
1274.947376  	0.091914 
1276.876192  	0.091894 
1278.805008  	0.091213 
1280.733824  	0.089520 
1282.662640  	0.086572 
1284.591456  	0.082698 
1286.520272  	0.078917 
1288.449088  	0.075853 
1290.377904  	0.073338 
1292.306720  	0.071297 
1294.235536  	0.069002 
1296.164352  	0.065903 
1298.093168  	0.062124 
1300.021984  	0.058514 
1301.950800  	0.055234 
1303.879616  	0.052575 
1305.808432  	0.050453 
1307.737248  	0.048842 
1309.666064  	0.047560 
1311.594880  	0.047019 
1313.523696  	0.046732 
1315.452512  	0.046802 
1317.381328  	0.047336 
1319.310144  	0.048075 
1321.238960  	0.048887 
1323.167776  	0.049827 
1325.096592  	0.050464 
1327.025408  	0.050616 
1328.954224  	0.050125 
1330.883040  	0.049330 
1332.811856  	0.048183 
1334.740672  	0.047180 
1336.669488  	0.046269 
1338.598304  	0.045714 
1340.527120  	0.045048 
1342.455936  	0.044504 
1344.384752  	0.044553 
1346.313568  	0.045313 
1348.242384  	0.046576 
1350.171200  	0.048351 
1352.100016  	0.050493 
1354.028832  	0.052665 
1355.957648  	0.054806 
1357.886464  	0.056978 
1359.815280  	0.058936 
1361.744096  	0.060771 
1363.672912  	0.062509 
1365.601728  	0.063566 
1367.530544  	0.064263 
1369.459360  	0.064665 
1371.388176  	0.064200 
1373.316992  	0.062993 
1375.245808  	0.061218 
1377.174624  	0.059755 
1379.103440  	0.057885 
1381.032256  	0.056080 
1382.961072  	0.054634 
1384.889888  	0.053630 
1386.818704  	0.052646 
1388.747520  	0.051440 
1390.676336  	0.050121 
1392.605152  	0.048942 
1394.533968  	0.047976 
1396.462784  	0.048087 
1398.391600  	0.048494 
1400.320416  	0.049284 
1402.249232  	0.050247 
1404.178048  	0.051576 
1406.106864  	0.053075 
1408.035680  	0.054988 
1409.964496  	0.057017 
1411.893312  	0.058995 
1413.822128  	0.060635 
1415.750944  	0.062063 
1417.679760  	0.062623 
1419.608576  	0.062203 
1421.537392  	0.061680 
1423.466208  	0.060960 
1425.395024  	0.059440 
1427.323840  	0.057714 
1429.252656  	0.055681 
1431.181472  	0.054343 
1433.110288  	0.053793 
1435.039104  	0.053639 
1436.967920  	0.053791 
1438.896736  	0.054606 
1440.825552  	0.055211 
1442.754368  	0.055750 
1444.683184  	0.055823 
1446.612000  	0.055729 
1448.540816  	0.055761 
1450.469632  	0.056159 
1452.398448  	0.056216 
1454.327264  	0.056079 
1456.256080  	0.055322 
1458.184896  	0.055127 
1460.113712  	0.056300 
1462.042528  	0.057190 
1463.971344  	0.057473 
1465.900160  	0.059160 
1467.828976  	0.061600 
1469.757792  	0.064025 
1471.686608  	0.066607 
1473.615424  	0.071185 
1475.544240  	0.074954 
1477.473056  	0.077859 
1479.401872  	0.079092 
1481.330688  	0.079569 
1483.259504  	0.079129 
1485.188320  	0.077882 
1487.117136  	0.075489 
1489.045952  	0.072963 
1490.974768  	0.069583 
1492.903584  	0.066593 
1494.832400  	0.063278 
1496.761216  	0.059104 
1498.690032  	0.055752 
1500.618848  	0.053879 
1502.547664  	0.051981 
1504.476480  	0.049265 
1506.405296  	0.045952 
1508.334112  	0.046179 
1510.262928  	0.046648 
1512.191744  	0.046242 
1514.120560  	0.045508 
1516.049376  	0.045056 
1517.978192  	0.045098 
1519.907008  	0.045851 
1521.835824  	0.047672 
1523.764640  	0.050981 
1525.693456  	0.054182 
1527.622272  	0.056993 
1529.551088  	0.058822 
1531.479904  	0.059476 
1533.408720  	0.058644 
1535.337536  	0.057720 
1537.266352  	0.055654 
1539.195168  	0.051040 
1541.123984  	0.048022 
1543.052800  	0.048714 
1544.981616  	0.048755 
1546.910432  	0.048393 
1548.839248  	0.048021 
1550.768064  	0.047935 
1552.696880  	0.047501 
1554.625696  	0.047486 
1556.554512  	0.046691 
1558.483328  	0.045644 
1560.412144  	0.050715 
1562.340960  	0.054854 
1564.269776  	0.057409 
1566.198592  	0.061231 
1568.127408  	0.064179 
1570.056224  	0.068827 
1571.985040  	0.073248 
1573.913856  	0.075630 
1575.842672  	0.076780 
1577.771488  	0.078792 
1579.700304  	0.079428 
1581.629120  	0.079764 
1583.557936  	0.080204 
1585.486752  	0.081928 
1587.415568  	0.084765 
1589.344384  	0.089118 
1591.273200  	0.094056 
1593.202016  	0.099651 
1595.130832  	0.105046 
1597.059648  	0.110267 
1598.988464  	0.114139 
1600.917280  	0.117077 
1602.846096  	0.118622 
1604.774912  	0.119488 
1606.703728  	0.119199 
1608.632544  	0.118715 
1610.561360  	0.117963 
1612.490176  	0.117669 
1614.418992  	0.117311 
1616.347808  	0.118615 
1618.276624  	0.122103 
1620.205440  	0.126569 
1622.134256  	0.131022 
1624.063072  	0.138174 
1625.991888  	0.145051 
1627.920704  	0.152927 
1629.849520  	0.160627 
1631.778336  	0.167145 
1633.707152  	0.172044 
1635.635968  	0.178612 
1637.564784  	0.185112 
1639.493600  	0.189695 
1641.422416  	0.192998 
1643.351232  	0.195005 
1645.280048  	0.195297 
1647.208864  	0.194725 
1649.137680  	0.193271 
1651.066496  	0.192332 
1652.995312  	0.191054 
1654.924128  	0.189816 
1656.852944  	0.188928 
1658.781760  	0.188206 
1660.710576  	0.186675 
1662.639392  	0.184601 
1664.568208  	0.182241 
1666.497024  	0.180673 
1668.425840  	0.178779 
1670.354656  	0.176756 
1672.283472  	0.175258 
1674.212288  	0.175290 
1676.141104  	0.175604 
1678.069920  	0.175958 
1679.998736  	0.176022 
1681.927552  	0.175164 
1683.856368  	0.173985 
1685.785184  	0.174156 
1687.714000  	0.173980 
1689.642816  	0.173104 
1691.571632  	0.170766 
1693.500448  	0.167918 
1695.429264  	0.163395 
1697.358080  	0.157795 
1699.286896  	0.154042 
1701.215712  	0.148535 
1703.144528  	0.144941 
1705.073344  	0.140453 
1707.002160  	0.134974 
1708.930976  	0.130210 
1710.859792  	0.124826 
1712.788608  	0.118684 
1714.717424  	0.111960 
1716.646240  	0.104482 
1718.575056  	0.097079 
1720.503872  	0.091777 
1722.432688  	0.086953 
1724.361504  	0.080636 
1726.290320  	0.074689 
1728.219136  	0.068908 
1730.147952  	0.063299 
1732.076768  	0.057873 
1734.005584  	0.051325 
1735.934400  	0.045742 
1737.863216  	0.042708 
1739.792032  	0.037684 
1741.720848  	0.034226 
1743.649664  	0.031080 
1745.578480  	0.027992 
1747.507296  	0.024741 
1749.436112  	0.022742 
1751.364928  	0.021379 
1753.293744  	0.020659 
1755.222560  	0.019251 
1757.151376  	0.018102 
1759.080192  	0.017027 
1761.009008  	0.016298 
1762.937824  	0.015569 
1764.866640  	0.015517 
1766.795456  	0.014898 
1768.724272  	0.014332 
1770.653088  	0.012431 
1772.581904  	0.011627 
1774.510720  	0.012667 
1776.439536  	0.013239 
1778.368352  	0.012915 
1780.297168  	0.012820 
1782.225984  	0.012670 
1784.154800  	0.012655 
1786.083616  	0.012354 
1788.012432  	0.012178 
1789.941248  	0.011494 
1791.870064  	0.010831 
1793.798880  	0.010804 
1795.727696  	0.011548 
1797.656512  	0.011053 
1799.585328  	0.010544 
1801.514144  	0.010463 
1803.442960  	0.010689 
1805.371776  	0.010505 
1807.300592  	0.010450 
1809.229408  	0.009837 
1811.158224  	0.009964 
1813.087040  	0.009856 
1815.015856  	0.009637 
1816.944672  	0.009563 
1818.873488  	0.009949 
1820.802304  	0.009945 
1822.731120  	0.009892 
1824.659936  	0.009389 
1826.588752  	0.009532 
1828.517568  	0.009057 
1830.446384  	0.009269 
1832.375200  	0.009722 
1834.304016  	0.009821 
1836.232832  	0.009531 
1838.161648  	0.009868 
1840.090464  	0.009688 
1842.019280  	0.009283 
1843.948096  	0.008222 
1845.876912  	0.008770 
1847.805728  	0.009294 
1849.734544  	0.009814 
1851.663360  	0.009596 
1853.592176  	0.009563 
1855.520992  	0.009400 
1857.449808  	0.009810 
1859.378624  	0.009672 
1861.307440  	0.009517 
1863.236256  	0.009080 
1865.165072  	0.008786 
1867.093888  	0.008518 
1869.022704  	0.008877 
1870.951520  	0.009019 
1872.880336  	0.009342 
1874.809152  	0.008977 
1876.737968  	0.008988 
1878.666784  	0.008581 
1880.595600  	0.008643 
1882.524416  	0.008902 
1884.453232  	0.008962 
1886.382048  	0.008541 
1888.310864  	0.008900 
1890.239680  	0.009300 
1892.168496  	0.009619 
1894.097312  	0.008809 
1896.026128  	0.008785 
1897.954944  	0.008682 
1899.883760  	0.008627 
1901.812576  	0.008221 
1903.741392  	0.008441 
1905.670208  	0.008202 
1907.599024  	0.008220 
1909.527840  	0.008074 
1911.456656  	0.008780 
1913.385472  	0.009158 
1915.314288  	0.009128 
1917.243104  	0.008342 
1919.171920  	0.008375 
1921.100736  	0.008399 
1923.029552  	0.008936 
1924.958368  	0.008385 
1926.887184  	0.008251 
1928.816000  	0.007873 
1930.744816  	0.007940 
1932.673632  	0.007708 
1934.602448  	0.008432 
1936.531264  	0.008718 
1938.460080  	0.008905 
1940.388896  	0.008249 
1942.317712  	0.008048 
1944.246528  	0.007814 
1946.175344  	0.008603 
1948.104160  	0.007715 
1950.032976  	0.007468 
1951.961792  	0.007561 
1953.890608  	0.007824 
1955.819424  	0.006771 
1957.748240  	0.006748 
1959.677056  	0.007660 
1961.605872  	0.007521 
1963.534688  	0.006689 
1965.463504  	0.007952 
1967.392320  	0.007467 
1969.321136  	0.006639 
1971.249952  	0.006479 
1973.178768  	0.007958 
1975.107584  	0.007168 
1977.036400  	0.006545 
1978.965216  	0.008241 
1980.894032  	0.009355 
1982.822848  	0.007780 
1984.751664  	0.007787 
1986.680480  	0.008240 
1988.609296  	0.008451 
1990.538112  	0.007947 
1992.466928  	0.008176 
1994.395744  	0.007706 
1996.324560  	0.007883 
1998.253376  	0.007516 
2000.182192  	0.007994 
2002.111008  	0.008060 
2004.039824  	0.008564 
2005.968640  	0.007313 
2007.897456  	0.007187 
2009.826272  	0.007118 
2011.755088  	0.006699 
2013.683904  	0.007626 
2015.612720  	0.008144 
2017.541536  	0.006862 
2019.470352  	0.007096 
2021.399168  	0.006313 
2023.327984  	0.007464 
2025.256800  	0.007431 
2027.185616  	0.006609 
2029.114432  	0.006136 
2031.043248  	0.007646 
2032.972064  	0.007743 
2034.900880  	0.008393 
2036.829696  	0.007146 
2038.758512  	0.007136 
2040.687328  	0.008199 
2042.616144  	0.008190 
2044.544960  	0.007439 
2046.473776  	0.008422 
2048.402592  	0.008360 
2050.331408  	0.009267 
2052.260224  	0.008803 
2054.189040  	0.008768 
2056.117856  	0.008141 
2058.046672  	0.008373 
2059.975488  	0.008361 
2061.904304  	0.008215 
2063.833120  	0.008806 
2065.761936  	0.009440 
2067.690752  	0.009159 
2069.619568  	0.008759 
2071.548384  	0.007749 
2073.477200  	0.008023 
2075.406016  	0.008976 
2077.334832  	0.009380 
2079.263648  	0.008650 
2081.192464  	0.008862 
2083.121280  	0.009269 
2085.050096  	0.009472 
2086.978912  	0.009312 
2088.907728  	0.009362 
2090.836544  	0.008976 
2092.765360  	0.008702 
2094.694176  	0.008591 
2096.622992  	0.008934 
2098.551808  	0.008910 
2100.480624  	0.008804 
2102.409440  	0.008431 
2104.338256  	0.009162 
2106.267072  	0.009190 
2108.195888  	0.009135 
2110.124704  	0.009768 
2112.053520  	0.010059 
2113.982336  	0.009431 
2115.911152  	0.009745 
2117.839968  	0.009599 
2119.768784  	0.009297 
2121.697600  	0.008713 
2123.626416  	0.008218 
2125.555232  	0.007781 
2127.484048  	0.008239 
2129.412864  	0.007745 
2131.341680  	0.007070 
2133.270496  	0.007290 
2135.199312  	0.008499 
2137.128128  	0.008657 
2139.056944  	0.008213 
2140.985760  	0.007483 
2142.914576  	0.008169 
2144.843392  	0.007484 
2146.772208  	0.007084 
2148.701024  	0.007941 
2150.629840  	0.008504 
2152.558656  	0.006957 
2154.487472  	0.005199 
2156.416288  	0.004090 
2158.345104  	0.006306 
2160.273920  	0.009096 
2162.202736  	0.009973 
2164.131552  	0.008960 
2166.060368  	0.010414 
2167.989184  	0.009182 
2169.918000  	0.008441 
2171.846816  	0.008420 
2173.775632  	0.008257 
2175.704448  	0.008000 
2177.633264  	0.009238 
2179.562080  	0.009115 
2181.490896  	0.007835 
2183.419712  	0.007459 
2185.348528  	0.008820 
2187.277344  	0.008375 
2189.206160  	0.007937 
2191.134976  	0.008877 
2193.063792  	0.010270 
2194.992608  	0.010068 
2196.921424  	0.009165 
2198.850240  	0.009410 
2200.779056  	0.009244 
2202.707872  	0.008532 
2204.636688  	0.008499 
2206.565504  	0.008783 
2208.494320  	0.009455 
2210.423136  	0.008545 
2212.351952  	0.008473 
2214.280768  	0.008700 
2216.209584  	0.008743 
2218.138400  	0.008393 
2220.067216  	0.008335 
2221.996032  	0.008722 
2223.924848  	0.009091 
2225.853664  	0.009243 
2227.782480  	0.009688 
2229.711296  	0.009710 
2231.640112  	0.009541 
2233.568928  	0.009221 
2235.497744  	0.009166 
2237.426560  	0.008677 
2239.355376  	0.009003 
2241.284192  	0.009165 
2243.213008  	0.008917 
2245.141824  	0.008779 
2247.070640  	0.008264 
2248.999456  	0.008412 
2250.928272  	0.009117 
2252.857088  	0.008639 
2254.785904  	0.008673 
2256.714720  	0.009508 
2258.643536  	0.009836 
2260.572352  	0.009136 
2262.501168  	0.009514 
2264.429984  	0.009636 
2266.358800  	0.009623 
2268.287616  	0.009576 
2270.216432  	0.009924 
2272.145248  	0.009781 
2274.074064  	0.010005 
2276.002880  	0.010305 
2277.931696  	0.010922 
2279.860512  	0.011283 
2281.789328  	0.011277 
2283.718144  	0.011179 
2285.646960  	0.011356 
2287.575776  	0.011492 
2289.504592  	0.011219 
2291.433408  	0.010638 
2293.362224  	0.010418 
2295.291040  	0.010508 
2297.219856  	0.010863 
2299.148672  	0.011078 
2301.077488  	0.011089 
2303.006304  	0.011075 
2304.935120  	0.011033 
2306.863936  	0.010850 
2308.792752  	0.010566 
2310.721568  	0.010276 
2312.650384  	0.010109 
2314.579200  	0.009562 
2316.508016  	0.009477 
2318.436832  	0.009018 
2320.365648  	0.008299 
2322.294464  	0.007571 
2324.223280  	0.006642 
2326.152096  	0.005161 
2328.080912  	0.004036 
2330.009728  	0.003210 
2331.938544  	0.002443 
2333.867360  	0.001471 
2335.796176  	0.000790 
2337.724992  	0.000316 
2339.653808  	-0.000024 
2341.582624  	0.000276 
2343.511440  	0.001553 
2345.440256  	0.003211 
2347.369072  	0.005631 
2349.297888  	0.006356 
2351.226704  	0.004477 
2353.155520  	0.001718 
2355.084336  	-0.000654 
2357.013152  	-0.002700 
2358.941968  	-0.004017 
2360.870784  	-0.004336 
2362.799600  	-0.004011 
2364.728416  	-0.003166 
2366.657232  	-0.001343 
2368.586048  	0.000120 
2370.514864  	0.002475 
2372.443680  	0.004700 
2374.372496  	0.006910 
2376.301312  	0.008832 
2378.230128  	0.010268 
2380.158944  	0.010879 
2382.087760  	0.011297 
2384.016576  	0.011772 
2385.945392  	0.011944 
2387.874208  	0.011686 
2389.803024  	0.011555 
2391.731840  	0.011370 
2393.660656  	0.011405 
2395.589472  	0.011565 
2397.518288  	0.011712 
2399.447104  	0.011697 
2401.375920  	0.011506 
2403.304736  	0.011539 
2405.233552  	0.011749 
2407.162368  	0.011941 
2409.091184  	0.011808 
2411.020000  	0.011650 
2412.948816  	0.011760 
2414.877632  	0.011724 
2416.806448  	0.011964 
2418.735264  	0.012336 
2420.664080  	0.012337 
2422.592896  	0.012007 
2424.521712  	0.012058 
2426.450528  	0.012113 
2428.379344  	0.012090 
2430.308160  	0.012097 
2432.236976  	0.012377 
2434.165792  	0.012660 
2436.094608  	0.013067 
2438.023424  	0.013276 
2439.952240  	0.013233 
2441.881056  	0.013152 
2443.809872  	0.013133 
2445.738688  	0.013189 
2447.667504  	0.013256 
2449.596320  	0.013089 
2451.525136  	0.013151 
2453.453952  	0.013313 
2455.382768  	0.013688 
2457.311584  	0.013920 
2459.240400  	0.013900 
2461.169216  	0.013800 
2463.098032  	0.013663 
2465.026848  	0.013671 
2466.955664  	0.013653 
2468.884480  	0.013364 
2470.813296  	0.013372 
2472.742112  	0.013399 
2474.670928  	0.013705 
2476.599744  	0.014016 
2478.528560  	0.014036 
2480.457376  	0.014093 
2482.386192  	0.014115 
2484.315008  	0.014195 
2486.243824  	0.014277 
2488.172640  	0.014119 
2490.101456  	0.014234 
2492.030272  	0.014585 
2493.959088  	0.014677 
2495.887904  	0.014548 
2497.816720  	0.014551 
2499.745536  	0.014673 
2501.674352  	0.014907 
2503.603168  	0.014907 
2505.531984  	0.014916 
2507.460800  	0.014906 
2509.389616  	0.014783 
2511.318432  	0.014641 
2513.247248  	0.014872 
2515.176064  	0.015053 
2517.104880  	0.015484 
2519.033696  	0.015638 
2520.962512  	0.015388 
2522.891328  	0.015372 
2524.820144  	0.015600 
2526.748960  	0.015603 
2528.677776  	0.015702 
2530.606592  	0.015819 
2532.535408  	0.015937 
2534.464224  	0.016139 
2536.393040  	0.016118 
2538.321856  	0.015791 
2540.250672  	0.015981 
2542.179488  	0.016201 
2544.108304  	0.016376 
2546.037120  	0.016245 
2547.965936  	0.016599 
2549.894752  	0.016914 
2551.823568  	0.016940 
2553.752384  	0.016936 
2555.681200  	0.017000 
2557.610016  	0.016990 
2559.538832  	0.017090 
2561.467648  	0.017058 
2563.396464  	0.017373 
2565.325280  	0.017723 
2567.254096  	0.017753 
2569.182912  	0.017498 
2571.111728  	0.017428 
2573.040544  	0.017351 
2574.969360  	0.017428 
2576.898176  	0.017634 
2578.826992  	0.017974 
2580.755808  	0.018010 
2582.684624  	0.017894 
2584.613440  	0.017751 
2586.542256  	0.018035 
2588.471072  	0.018484 
2590.399888  	0.018573 
2592.328704  	0.018561 
2594.257520  	0.018608 
2596.186336  	0.018943 
2598.115152  	0.019239 
2600.043968  	0.019182 
2601.972784  	0.019236 
2603.901600  	0.019284 
2605.830416  	0.019487 
2607.759232  	0.019446 
2609.688048  	0.019568 
2611.616864  	0.019705 
2613.545680  	0.019821 
2615.474496  	0.019952 
2617.403312  	0.020083 
2619.332128  	0.020320 
2621.260944  	0.020523 
2623.189760  	0.020486 
2625.118576  	0.020569 
2627.047392  	0.020777 
2628.976208  	0.021053 
2630.905024  	0.021236 
2632.833840  	0.021508 
2634.762656  	0.021647 
2636.691472  	0.021557 
2638.620288  	0.021591 
2640.549104  	0.021786 
2642.477920  	0.021827 
2644.406736  	0.022041 
2646.335552  	0.022447 
2648.264368  	0.022579 
2650.193184  	0.022676 
2652.122000  	0.022950 
2654.050816  	0.023109 
2655.979632  	0.023098 
2657.908448  	0.023127 
2659.837264  	0.023244 
2661.766080  	0.023275 
2663.694896  	0.023371 
2665.623712  	0.023448 
2667.552528  	0.023438 
2669.481344  	0.023616 
2671.410160  	0.023859 
2673.338976  	0.023986 
2675.267792  	0.024163 
2677.196608  	0.024328 
2679.125424  	0.024503 
2681.054240  	0.024534 
2682.983056  	0.024585 
2684.911872  	0.024807 
2686.840688  	0.025039 
2688.769504  	0.025168 
2690.698320  	0.025188 
2692.627136  	0.025302 
2694.555952  	0.025391 
2696.484768  	0.025304 
2698.413584  	0.025405 
2700.342400  	0.025595 
2702.271216  	0.025786 
2704.200032  	0.025983 
2706.128848  	0.026171 
2708.057664  	0.026323 
2709.986480  	0.026448 
2711.915296  	0.026556 
2713.844112  	0.026648 
2715.772928  	0.026870 
2717.701744  	0.027080 
2719.630560  	0.027100 
2721.559376  	0.027210 
2723.488192  	0.027384 
2725.417008  	0.027492 
2727.345824  	0.027565 
2729.274640  	0.027659 
2731.203456  	0.027772 
2733.132272  	0.027905 
2735.061088  	0.028110 
2736.989904  	0.028321 
2738.918720  	0.028444 
2740.847536  	0.028413 
2742.776352  	0.028500 
2744.705168  	0.028698 
2746.633984  	0.028729 
2748.562800  	0.028806 
2750.491616  	0.028843 
2752.420432  	0.028891 
2754.349248  	0.029044 
2756.278064  	0.029238 
2758.206880  	0.029266 
2760.135696  	0.029404 
2762.064512  	0.029540 
2763.993328  	0.029626 
2765.922144  	0.029719 
2767.850960  	0.029769 
2769.779776  	0.029779 
2771.708592  	0.029791 
2773.637408  	0.029835 
2775.566224  	0.030003 
2777.495040  	0.030030 
2779.423856  	0.030067 
2781.352672  	0.030236 
2783.281488  	0.030481 
2785.210304  	0.030588 
2787.139120  	0.030758 
2789.067936  	0.030928 
2790.996752  	0.030945 
2792.925568  	0.031058 
2794.854384  	0.031247 
2796.783200  	0.031313 
2798.712016  	0.031271 
2800.640832  	0.031316 
2802.569648  	0.031490 
2804.498464  	0.031543 
2806.427280  	0.031670 
2808.356096  	0.031808 
2810.284912  	0.032062 
2812.213728  	0.032171 
2814.142544  	0.032302 
2816.071360  	0.032473 
2818.000176  	0.032430 
2819.928992  	0.032319 
2821.857808  	0.032444 
2823.786624  	0.032597 
2825.715440  	0.032651 
2827.644256  	0.032484 
2829.573072  	0.032460 
2831.501888  	0.032449 
2833.430704  	0.032416 
2835.359520  	0.032460 
2837.288336  	0.032431 
2839.217152  	0.032418 
2841.145968  	0.032396 
2843.074784  	0.032378 
2845.003600  	0.032390 
2846.932416  	0.032353 
2848.861232  	0.032401 
2850.790048  	0.032498 
2852.718864  	0.032618 
2854.647680  	0.032737 
2856.576496  	0.032910 
2858.505312  	0.032991 
2860.434128  	0.033040 
2862.362944  	0.033136 
2864.291760  	0.033272 
2866.220576  	0.033307 
2868.149392  	0.033637 
2870.078208  	0.034084 
2872.007024  	0.034466 
2873.935840  	0.034801 
2875.864656  	0.035293 
2877.793472  	0.035938 
2879.722288  	0.036395 
2881.651104  	0.036627 
2883.579920  	0.036974 
2885.508736  	0.037254 
2887.437552  	0.037483 
2889.366368  	0.037575 
2891.295184  	0.037632 
2893.224000  	0.037841 
2895.152816  	0.038053 
2897.081632  	0.037811 
2899.010448  	0.037631 
2900.939264  	0.037700 
2902.868080  	0.037913 
2904.796896  	0.038089 
2906.725712  	0.038161 
2908.654528  	0.038388 
2910.583344  	0.038711 
2912.512160  	0.039189 
2914.440976  	0.039695 
2916.369792  	0.040005 
2918.298608  	0.040494 
2920.227424  	0.041146 
2922.156240  	0.041778 
2924.085056  	0.042325 
2926.013872  	0.042965 
2927.942688  	0.043770 
2929.871504  	0.044543 
2931.800320  	0.045125 
2933.729136  	0.045665 
2935.657952  	0.046056 
2937.586768  	0.046478 
2939.515584  	0.046792 
2941.444400  	0.047129 
2943.373216  	0.047446 
2945.302032  	0.047433 
2947.230848  	0.047314 
2949.159664  	0.047332 
2951.088480  	0.047300 
2953.017296  	0.047334 
2954.946112  	0.047064 
2956.874928  	0.046611 
2958.803744  	0.046263 
2960.732560  	0.046033 
2962.661376  	0.045840 
2964.590192  	0.045514 
2966.519008  	0.045212 
2968.447824  	0.044958 
2970.376640  	0.044864 
2972.305456  	0.044525 
2974.234272  	0.044233 
2976.163088  	0.044040 
2978.091904  	0.043793 
2980.020720  	0.043703 
2981.949536  	0.043655 
2983.878352  	0.043414 
2985.807168  	0.043203 
2987.735984  	0.043344 
2989.664800  	0.043481 
2991.593616  	0.043628 
2993.522432  	0.043811 
2995.451248  	0.044096 
2997.380064  	0.044366 
2999.308880  	0.044444 
3001.237696  	0.044505 
3003.166512  	0.044687 
3005.095328  	0.044933 
3007.024144  	0.045318 
3008.952960  	0.045642 
3010.881776  	0.045841 
3012.810592  	0.046128 
3014.739408  	0.046390 
3016.668224  	0.046802 
3018.597040  	0.047025 
3020.525856  	0.047149 
3022.454672  	0.047411 
3024.383488  	0.047754 
3026.312304  	0.047865 
3028.241120  	0.047936 
3030.169936  	0.048072 
3032.098752  	0.048389 
3034.027568  	0.048494 
3035.956384  	0.048609 
3037.885200  	0.048977 
3039.814016  	0.049306 
3041.742832  	0.049625 
3043.671648  	0.049898 
3045.600464  	0.050077 
3047.529280  	0.050180 
3049.458096  	0.050415 
3051.386912  	0.050713 
3053.315728  	0.051084 
3055.244544  	0.051516 
3057.173360  	0.051976 
3059.102176  	0.052335 
3061.030992  	0.052706 
3062.959808  	0.053002 
3064.888624  	0.053382 
3066.817440  	0.053959 
3068.746256  	0.054262 
3070.675072  	0.054462 
3072.603888  	0.054928 
3074.532704  	0.055437 
3076.461520  	0.055837 
3078.390336  	0.056101 
3080.319152  	0.056415 
3082.247968  	0.056973 
3084.176784  	0.057528 
3086.105600  	0.057807 
3088.034416  	0.057999 
3089.963232  	0.058374 
3091.892048  	0.058761 
3093.820864  	0.059116 
3095.749680  	0.059499 
3097.678496  	0.059644 
3099.607312  	0.059885 
3101.536128  	0.060205 
3103.464944  	0.060682 
3105.393760  	0.061093 
3107.322576  	0.061368 
3109.251392  	0.061688 
3111.180208  	0.062057 
3113.109024  	0.062149 
3115.037840  	0.062287 
3116.966656  	0.062631 
3118.895472  	0.062913 
3120.824288  	0.063050 
3122.753104  	0.063365 
3124.681920  	0.063573 
3126.610736  	0.063658 
3128.539552  	0.063829 
3130.468368  	0.063982 
3132.397184  	0.064040 
3134.326000  	0.064336 
3136.254816  	0.064533 
3138.183632  	0.064737 
3140.112448  	0.064934 
3142.041264  	0.065299 
3143.970080  	0.065555 
3145.898896  	0.065613 
3147.827712  	0.065783 
3149.756528  	0.066105 
3151.685344  	0.066671 
3153.614160  	0.066968 
3155.542976  	0.067070 
3157.471792  	0.067211 
3159.400608  	0.067652 
3161.329424  	0.068068 
3163.258240  	0.068220 
3165.187056  	0.068411 
3167.115872  	0.068742 
3169.044688  	0.068922 
3170.973504  	0.069032 
3172.902320  	0.069255 
3174.831136  	0.069414 
3176.759952  	0.069629 
3178.688768  	0.069880 
3180.617584  	0.069901 
3182.546400  	0.069679 
3184.475216  	0.069790 
3186.404032  	0.070098 
3188.332848  	0.070284 
3190.261664  	0.070377 
3192.190480  	0.070389 
3194.119296  	0.070272 
3196.048112  	0.070250 
3197.976928  	0.070396 
3199.905744  	0.070244 
3201.834560  	0.070239 
3203.763376  	0.070306 
3205.692192  	0.070208 
3207.621008  	0.070049 
3209.549824  	0.069936 
3211.478640  	0.069702 
3213.407456  	0.069472 
3215.336272  	0.069678 
3217.265088  	0.069616 
3219.193904  	0.069079 
3221.122720  	0.068677 
3223.051536  	0.068597 
3224.980352  	0.068509 
3226.909168  	0.068171 
3228.837984  	0.067724 
3230.766800  	0.067697 
3232.695616  	0.067955 
3234.624432  	0.068036 
3236.553248  	0.067774 
3238.482064  	0.067512 
3240.410880  	0.067327 
3242.339696  	0.067148 
3244.268512  	0.067128 
3246.197328  	0.067170 
3248.126144  	0.067054 
3250.054960  	0.066980 
3251.983776  	0.066973 
3253.912592  	0.067054 
3255.841408  	0.067131 
3257.770224  	0.067177 
3259.699040  	0.067262 
3261.627856  	0.067447 
3263.556672  	0.067464 
3265.485488  	0.067384 
3267.414304  	0.067434 
3269.343120  	0.067638 
3271.271936  	0.067995 
3273.200752  	0.068178 
3275.129568  	0.068156 
3277.058384  	0.067954 
3278.987200  	0.068030 
3280.916016  	0.068158 
3282.844832  	0.068161 
3284.773648  	0.068306 
3286.702464  	0.068478 
3288.631280  	0.068540 
3290.560096  	0.068657 
3292.488912  	0.068920 
3294.417728  	0.069059 
3296.346544  	0.069056 
3298.275360  	0.069148 
3300.204176  	0.069366 
3302.132992  	0.069609 
3304.061808  	0.069825 
3305.990624  	0.070115 
3307.919440  	0.070220 
3309.848256  	0.070165 
3311.777072  	0.070288 
3313.705888  	0.070485 
3315.634704  	0.070697 
3317.563520  	0.071001 
3319.492336  	0.071132 
3321.421152  	0.071014 
3323.349968  	0.071052 
3325.278784  	0.071308 
3327.207600  	0.071324 
3329.136416  	0.071302 
3331.065232  	0.071214 
3332.994048  	0.071222 
3334.922864  	0.071265 
3336.851680  	0.071253 
3338.780496  	0.071163 
3340.709312  	0.070934 
3342.638128  	0.070725 
3344.566944  	0.070496 
3346.495760  	0.070244 
3348.424576  	0.070204 
3350.353392  	0.069979 
3352.282208  	0.069542 
3354.211024  	0.069470 
3356.139840  	0.069371 
3358.068656  	0.069107 
3359.997472  	0.068769 
3361.926288  	0.068420 
3363.855104  	0.067980 
3365.783920  	0.067691 
3367.712736  	0.067557 
3369.641552  	0.067173 
3371.570368  	0.066814 
3373.499184  	0.066454 
3375.428000  	0.066139 
3377.356816  	0.065890 
3379.285632  	0.065595 
3381.214448  	0.065323 
3383.143264  	0.065043 
3385.072080  	0.064856 
3387.000896  	0.064504 
3388.929712  	0.064143 
3390.858528  	0.063850 
3392.787344  	0.063462 
3394.716160  	0.062940 
3396.644976  	0.062525 
3398.573792  	0.062235 
3400.502608  	0.061873 
3402.431424  	0.061407 
3404.360240  	0.060992 
3406.289056  	0.060621 
3408.217872  	0.060189 
3410.146688  	0.059771 
3412.075504  	0.059623 
3414.004320  	0.059486 
3415.933136  	0.059068 
3417.861952  	0.058603 
3419.790768  	0.058334 
3421.719584  	0.057843 
3423.648400  	0.057158 
3425.577216  	0.056961 
3427.506032  	0.056839 
3429.434848  	0.056263 
3431.363664  	0.055908 
3433.292480  	0.055790 
3435.221296  	0.055434 
3437.150112  	0.054921 
3439.078928  	0.054615 
3441.007744  	0.054291 
3442.936560  	0.053897 
3444.865376  	0.053221 
3446.794192  	0.052512 
3448.723008  	0.052229 
3450.651824  	0.051846 
3452.580640  	0.051259 
3454.509456  	0.050724 
3456.438272  	0.050432 
3458.367088  	0.050105 
3460.295904  	0.049569 
3462.224720  	0.048988 
3464.153536  	0.048493 
3466.082352  	0.048086 
3468.011168  	0.047684 
3469.939984  	0.047287 
3471.868800  	0.046594 
3473.797616  	0.046146 
3475.726432  	0.045634 
3477.655248  	0.045107 
3479.584064  	0.044728 
3481.512880  	0.044311 
3483.441696  	0.043566 
3485.370512  	0.042821 
3487.299328  	0.042444 
3489.228144  	0.041955 
3491.156960  	0.041205 
3493.085776  	0.040742 
3495.014592  	0.040598 
3496.943408  	0.040264 
3498.872224  	0.039519 
3500.801040  	0.039018 
3502.729856  	0.038686 
3504.658672  	0.038122 
3506.587488  	0.037413 
3508.516304  	0.037027 
3510.445120  	0.036958 
3512.373936  	0.036661 
3514.302752  	0.036143 
3516.231568  	0.035696 
3518.160384  	0.035266 
3520.089200  	0.034863 
3522.018016  	0.034551 
3523.946832  	0.034346 
3525.875648  	0.033943 
3527.804464  	0.033414 
3529.733280  	0.032991 
3531.662096  	0.032652 
3533.590912  	0.032207 
3535.519728  	0.031829 
3537.448544  	0.031632 
3539.377360  	0.031346 
3541.306176  	0.030889 
3543.234992  	0.030241 
3545.163808  	0.029833 
3547.092624  	0.029422 
3549.021440  	0.028852 
3550.950256  	0.028408 
3552.879072  	0.028299 
3554.807888  	0.028137 
3556.736704  	0.027664 
3558.665520  	0.027345 
3560.594336  	0.027055 
3562.523152  	0.026409 
3564.451968  	0.025702 
3566.380784  	0.025099 
3568.309600  	0.025012 
3570.238416  	0.024834 
3572.167232  	0.024274 
3574.096048  	0.023750 
3576.024864  	0.023329 
3577.953680  	0.022862 
3579.882496  	0.022657 
3581.811312  	0.022458 
3583.740128  	0.021618 
3585.668944  	0.020564 
3587.597760  	0.020445 
3589.526576  	0.020488 
3591.455392  	0.019518 
3593.384208  	0.018922 
3595.313024  	0.018386 
3597.241840  	0.017869 
3599.170656  	0.017171 
3601.099472  	0.016738 
3603.028288  	0.016632 
3604.957104  	0.016137 
3606.885920  	0.015175 
3608.814736  	0.014894 
3610.743552  	0.014291 
3612.672368  	0.013390 
3614.601184  	0.012914 
3616.530000  	0.012226 
3618.458816  	0.011577 
3620.387632  	0.011520 
3622.316448  	0.011283 
3624.245264  	0.010884 
3626.174080  	0.009576 
3628.102896  	0.007838 
3630.031712  	0.008383 
3631.960528  	0.008760 
3633.889344  	0.008331 
3635.818160  	0.007964 
3637.746976  	0.007630 
3639.675792  	0.007511 
3641.604608  	0.007188 
3643.533424  	0.006470 
3645.462240  	0.005185 
3647.391056  	0.003419 
3649.319872  	0.002331 
3651.248688  	0.003583 
3653.177504  	0.004117 
3655.106320  	0.003302 
3657.035136  	0.003260 
3658.963952  	0.003600 
3660.892768  	0.003375 
3662.821584  	0.002800 
3664.750400  	0.002356 
3666.679216  	0.001501 
3668.608032  	-0.000204 
3670.536848  	-0.000761 
3672.465664  	-0.000434 
3674.394480  	-0.002241 
3676.323296  	-0.001594 
3678.252112  	0.000207 
3680.180928  	0.000702 
3682.109744  	0.000850 
3684.038560  	0.000473 
3685.967376  	-0.000542 
3687.896192  	-0.001980 
3689.825008  	-0.002196 
3691.753824  	-0.001127 
3693.682640  	-0.000149 
3695.611456  	-0.000104 
3697.540272  	-0.000061 
3699.469088  	-0.000352 
3701.397904  	-0.000624 
3703.326720  	-0.000333 
3705.255536  	-0.000196 
3707.184352  	-0.000822 
3709.113168  	-0.001929 
3711.041984  	-0.002378 
3712.970800  	-0.000938 
3714.899616  	0.000134 
3716.828432  	0.000157 
3718.757248  	-0.000459 
3720.686064  	-0.001131 
3722.614880  	-0.000933 
3724.543696  	-0.000467 
3726.472512  	-0.000330 
3728.401328  	-0.000713 
3730.330144  	-0.002040 
3732.258960  	-0.002849 
3734.187776  	-0.002292 
3736.116592  	-0.001403 
3738.045408  	-0.001143 
3739.974224  	-0.001133 
3741.903040  	-0.001697 
3743.831856  	-0.002246 
3745.760672  	-0.001510 
3747.689488  	-0.002413 
3749.618304  	-0.003755 
3751.547120  	-0.003217 
3753.475936  	-0.000912 
3755.404752  	-0.000391 
3757.333568  	-0.000960 
3759.262384  	-0.001045 
3761.191200  	-0.000231 
3763.120016  	0.000150 
3765.048832  	-0.000224 
3766.977648  	-0.000449 
3768.906464  	-0.000705 
3770.835280  	-0.000014 
3772.764096  	0.000660 
3774.692912  	0.000571 
3776.621728  	0.000012 
3778.550544  	-0.000513 
3780.479360  	-0.000143 
3782.408176  	0.000054 
3784.336992  	-0.000203 
3786.265808  	-0.000027 
3788.194624  	0.000185 
3790.123440  	0.000346 
3792.052256  	0.000438 
3793.981072  	0.000111 
3795.909888  	-0.000410 
3797.838704  	-0.000676 
3799.767520  	-0.001980 
3801.696336  	-0.002299 
3803.625152  	-0.001114 
3805.553968  	-0.001500 
3807.482784  	-0.001042 
3809.411600  	0.000226 
3811.340416  	0.000595 
3813.269232  	-0.000106 
3815.198048  	-0.001627 
3817.126864  	-0.001574 
3819.055680  	-0.002083 
3820.984496  	-0.002517 
3822.913312  	-0.000808 
3824.842128  	-0.000593 
3826.770944  	-0.000602 
3828.699760  	-0.000198 
3830.628576  	-0.000854 
3832.557392  	-0.001190 
3834.486208  	-0.001553 
3836.415024  	-0.002466 
3838.343840  	-0.002408 
3840.272656  	-0.001642 
3842.201472  	-0.001123 
3844.130288  	-0.000634 
3846.059104  	0.000042 
3847.987920  	-0.000044 
3849.916736  	-0.001126 
3851.845552  	-0.003111 
3853.774368  	-0.002717 
3855.703184  	-0.000716 
3857.632000  	-0.000137 
3859.560816  	-0.000075 
3861.489632  	-0.000597 
3863.418448  	-0.000985 
3865.347264  	-0.000571 
3867.276080  	-0.000642 
3869.204896  	-0.001101 
3871.133712  	-0.000155 
3873.062528  	-0.000340 
3874.991344  	-0.000115 
3876.920160  	0.000035 
3878.848976  	-0.000411 
3880.777792  	-0.000229 
3882.706608  	0.000024 
3884.635424  	-0.000394 
3886.564240  	0.000046 
3888.493056  	0.000042 
3890.421872  	-0.000267 
3892.350688  	0.000100 
3894.279504  	0.000350 
3896.208320  	0.000133 
3898.137136  	-0.000274 
3900.065952  	-0.000354 
3901.994768  	-0.000417 
3903.923584  	-0.000151 
3905.852400  	0.000358 
3907.781216  	0.000359 
3909.710032  	0.000413 
3911.638848  	0.000543 
3913.567664  	0.000330 
3915.496480  	0.000261 
3917.425296  	0.000703 
3919.354112  	0.000844 
3921.282928  	0.000842 
3923.211744  	0.000837 
3925.140560  	0.000855 
3927.069376  	0.000571 
3928.998192  	0.000346 
3930.927008  	0.000673 
3932.855824  	0.000960 
3934.784640  	0.000801 
3936.713456  	0.000885 
3938.642272  	0.000953 
3940.571088  	0.000709 
3942.499904  	0.000930 
3944.428720  	0.001083 
3946.357536  	0.000894 
3948.286352  	0.000861 
3950.215168  	0.000611 
3952.143984  	0.000513 
3954.072800  	0.000634 
3956.001616  	0.000728 
3957.930432  	0.000967 
3959.859248  	0.001082 
3961.788064  	0.000962 
3963.716880  	0.000752 
3965.645696  	0.000694 
3967.574512  	0.001000 
3969.503328  	0.001027 
3971.432144  	0.000786 
3973.360960  	0.000722 
3975.289776  	0.000965 
3977.218592  	0.000997 
3979.147408  	0.000889 
3981.076224  	0.000759 
3983.005040  	0.000759 
3984.933856  	0.000793 
3986.862672  	0.000894 
3988.791488  	0.000967 
3990.720304  	0.000987 
3992.649120  	0.000922 
3994.577936  	0.000873 
3996.506752  	0.000850 
3998.435568  	0.000953 
4000.364384  	0.000912 