##TITLE=No Description
##DATA TYPE=INFRARED SPECTRUM
##XUNITS=1/CM
##YUNITS=Abs
399.264912  	0.539060 
401.193728  	0.528156 
403.122544  	0.517707 
405.051360  	0.512406 
406.980176  	0.519787 
408.908992  	0.513066 
410.837808  	0.515974 
412.766624  	0.512038 
414.695440  	0.505774 
416.624256  	0.492948 
418.553072  	0.490003 
420.481888  	0.491981 
422.410704  	0.494853 
424.339520  	0.488382 
426.268336  	0.488601 
428.197152  	0.480480 
430.125968  	0.476212 
432.054784  	0.472202 
433.983600  	0.471001 
435.912416  	0.467587 
437.841232  	0.466204 
439.770048  	0.461090 
441.698864  	0.457808 
443.627680  	0.455830 
445.556496  	0.457624 
447.485312  	0.453459 
449.414128  	0.452902 
451.342944  	0.452392 
453.271760  	0.454808 
455.200576  	0.450271 
457.129392  	0.443698 
459.058208  	0.441318 
460.987024  	0.446066 
462.915840  	0.444491 
464.844656  	0.446959 
466.773472  	0.443584 
468.702288  	0.440119 
470.631104  	0.435403 
472.559920  	0.440828 
474.488736  	0.440441 
476.417552  	0.441077 
478.346368  	0.439727 
480.275184  	0.438080 
482.204000  	0.433744 
484.132816  	0.430608 
486.061632  	0.428806 
487.990448  	0.432712 
489.919264  	0.431915 
491.848080  	0.430643 
493.776896  	0.426977 
495.705712  	0.425968 
497.634528  	0.424930 
499.563344  	0.424475 
501.492160  	0.421623 
503.420976  	0.422226 
505.349792  	0.421442 
507.278608  	0.421042 
509.207424  	0.419209 
511.136240  	0.420229 
513.065056  	0.420801 
514.993872  	0.420742 
516.922688  	0.418693 
518.851504  	0.420087 
520.780320  	0.418255 
522.709136  	0.416684 
524.637952  	0.414195 
526.566768  	0.414068 
528.495584  	0.414166 
530.424400  	0.412843 
532.353216  	0.409231 
534.282032  	0.405936 
536.210848  	0.402869 
538.139664  	0.400026 
540.068480  	0.396732 
541.997296  	0.393417 
543.926112  	0.390586 
545.854928  	0.390506 
547.783744  	0.387275 
549.712560  	0.383779 
551.641376  	0.380652 
553.570192  	0.378798 
555.499008  	0.375930 
557.427824  	0.373726 
559.356640  	0.371002 
561.285456  	0.368560 
563.214272  	0.365940 
565.143088  	0.363969 
567.071904  	0.360390 
569.000720  	0.357138 
570.929536  	0.354985 
572.858352  	0.353497 
574.787168  	0.350745 
576.715984  	0.348537 
578.644800  	0.346078 
580.573616  	0.343344 
582.502432  	0.339781 
584.431248  	0.337607 
586.360064  	0.335720 
588.288880  	0.334254 
590.217696  	0.332459 
592.146512  	0.331158 
594.075328  	0.328983 
596.004144  	0.326718 
597.932960  	0.325110 
599.861776  	0.324673 
601.790592  	0.323163 
603.719408  	0.321920 
605.648224  	0.320519 
607.577040  	0.320275 
609.505856  	0.319374 
611.434672  	0.317488 
613.363488  	0.315073 
615.292304  	0.314296 
617.221120  	0.313123 
619.149936  	0.311439 
621.078752  	0.308383 
623.007568  	0.306796 
624.936384  	0.304999 
626.865200  	0.303708 
628.794016  	0.302592 
630.722832  	0.301475 
632.651648  	0.299546 
634.580464  	0.298939 
636.509280  	0.298792 
638.438096  	0.297651 
640.366912  	0.296866 
642.295728  	0.295370 
644.224544  	0.293122 
646.153360  	0.290759 
648.082176  	0.287761 
650.010992  	0.285526 
651.939808  	0.282466 
653.868624  	0.279706 
655.797440  	0.276623 
657.726256  	0.274078 
659.655072  	0.271355 
661.583888  	0.268659 
663.512704  	0.266280 
665.441520  	0.263441 
667.370336  	0.258742 
669.299152  	0.257581 
671.227968  	0.256760 
673.156784  	0.254236 
675.085600  	0.252131 
677.014416  	0.250934 
678.943232  	0.249413 
680.872048  	0.247374 
682.800864  	0.245528 
684.729680  	0.244595 
686.658496  	0.242841 
688.587312  	0.240821 
690.516128  	0.238877 
692.444944  	0.237699 
694.373760  	0.236399 
696.302576  	0.235137 
698.231392  	0.233054 
700.160208  	0.231033 
702.089024  	0.228833 
704.017840  	0.227405 
705.946656  	0.225343 
707.875472  	0.223199 
709.804288  	0.221247 
711.733104  	0.219507 
713.661920  	0.218095 
715.590736  	0.217093 
717.519552  	0.216189 
719.448368  	0.215999 
721.377184  	0.215917 
723.306000  	0.215792 
725.234816  	0.215340 
727.163632  	0.213983 
729.092448  	0.211780 
731.021264  	0.209873 
732.950080  	0.207459 
734.878896  	0.205328 
736.807712  	0.203584 
738.736528  	0.202039 
740.665344  	0.200573 
742.594160  	0.199404 
744.522976  	0.198076 
746.451792  	0.196910 
748.380608  	0.195684 
750.309424  	0.194636 
752.238240  	0.193541 
754.167056  	0.192721 
756.095872  	0.191562 
758.024688  	0.190130 
759.953504  	0.188917 
761.882320  	0.188458 
763.811136  	0.187814 
765.739952  	0.186831 
767.668768  	0.185955 
769.597584  	0.184740 
771.526400  	0.183672 
773.455216  	0.184301 
775.384032  	0.185277 
777.312848  	0.186299 
779.241664  	0.187714 
781.170480  	0.187625 
783.099296  	0.185579 
785.028112  	0.182534 
786.956928  	0.178317 
788.885744  	0.174574 
790.814560  	0.172124 
792.743376  	0.170248 
794.672192  	0.168415 
796.601008  	0.167298 
798.529824  	0.165999 
800.458640  	0.163693 
802.387456  	0.161115 
804.316272  	0.159496 
806.245088  	0.158455 
808.173904  	0.157433 
810.102720  	0.156589 
812.031536  	0.155811 
813.960352  	0.155130 
815.889168  	0.154629 
817.817984  	0.153868 
819.746800  	0.153050 
821.675616  	0.152045 
823.604432  	0.151289 
825.533248  	0.150292 
827.462064  	0.149205 
829.390880  	0.148135 
831.319696  	0.146997 
833.248512  	0.145609 
835.177328  	0.144308 
837.106144  	0.142790 
839.034960  	0.140505 
840.963776  	0.138356 
842.892592  	0.136599 
844.821408  	0.134429 
846.750224  	0.132331 
848.679040  	0.130834 
850.607856  	0.129285 
852.536672  	0.127735 
854.465488  	0.126223 
856.394304  	0.124883 
858.323120  	0.123667 
860.251936  	0.122137 
862.180752  	0.120494 
864.109568  	0.119142 
866.038384  	0.117959 
867.967200  	0.116663 
869.896016  	0.115485 
871.824832  	0.114080 
873.753648  	0.112968 
875.682464  	0.112634 
877.611280  	0.112736 
879.540096  	0.112645 
881.468912  	0.112916 
883.397728  	0.113138 
885.326544  	0.112888 
887.255360  	0.112255 
889.184176  	0.111542 
891.112992  	0.110722 
893.041808  	0.109584 
894.970624  	0.108271 
896.899440  	0.106534 
898.828256  	0.104323 
900.757072  	0.102193 
902.685888  	0.100269 
904.614704  	0.098942 
906.543520  	0.098170 
908.472336  	0.098224 
910.401152  	0.099002 
912.329968  	0.100398 
914.258784  	0.101800 
916.187600  	0.103035 
918.116416  	0.103840 
920.045232  	0.103999 
921.974048  	0.103514 
923.902864  	0.102778 
925.831680  	0.101913 
927.760496  	0.101068 
929.689312  	0.100221 
931.618128  	0.099719 
933.546944  	0.099663 
935.475760  	0.099446 
937.404576  	0.099092 
939.333392  	0.099254 
941.262208  	0.099819 
943.191024  	0.100881 
945.119840  	0.102575 
947.048656  	0.104698 
948.977472  	0.107412 
950.906288  	0.110631 
952.835104  	0.114202 
954.763920  	0.117655 
956.692736  	0.120857 
958.621552  	0.123704 
960.550368  	0.125628 
962.479184  	0.126582 
964.408000  	0.125859 
966.336816  	0.123811 
968.265632  	0.120280 
970.194448  	0.115993 
972.123264  	0.110854 
974.052080  	0.105031 
975.980896  	0.099248 
977.909712  	0.093925 
979.838528  	0.089429 
981.767344  	0.085746 
983.696160  	0.083119 
985.624976  	0.081578 
987.553792  	0.081297 
989.482608  	0.082022 
991.411424  	0.083852 
993.340240  	0.086694 
995.269056  	0.090439 
997.197872  	0.094464 
999.126688  	0.098140 
1001.055504  	0.101910 
1002.984320  	0.105690 
1004.913136  	0.109205 
1006.841952  	0.112117 
1008.770768  	0.114786 
1010.699584  	0.116924 
1012.628400  	0.118349 
1014.557216  	0.119185 
1016.486032  	0.119597 
1018.414848  	0.119869 
1020.343664  	0.120144 
1022.272480  	0.120330 
1024.201296  	0.120241 
1026.130112  	0.119739 
1028.058928  	0.119875 
1029.987744  	0.120336 
1031.916560  	0.120995 
1033.845376  	0.122232 
1035.774192  	0.123694 
1037.703008  	0.125131 
1039.631824  	0.127866 
1041.560640  	0.131566 
1043.489456  	0.136216 
1045.418272  	0.142207 
1047.347088  	0.149589 
1049.275904  	0.157354 
1051.204720  	0.165190 
1053.133536  	0.172064 
1055.062352  	0.177873 
1056.991168  	0.181851 
1058.919984  	0.184571 
1060.848800  	0.185860 
1062.777616  	0.185829 
1064.706432  	0.184056 
1066.635248  	0.182108 
1068.564064  	0.179950 
1070.492880  	0.177223 
1072.421696  	0.173693 
1074.350512  	0.170321 
1076.279328  	0.167534 
1078.208144  	0.165382 
1080.136960  	0.163511 
1082.065776  	0.161873 
1083.994592  	0.160164 
1085.923408  	0.158631 
1087.852224  	0.156525 
1089.781040  	0.154310 
1091.709856  	0.151520 
1093.638672  	0.147823 
1095.567488  	0.142680 
1097.496304  	0.137416 
1099.425120  	0.131891 
1101.353936  	0.126468 
1103.282752  	0.120684 
1105.211568  	0.114487 
1107.140384  	0.108565 
1109.069200  	0.102840 
1110.998016  	0.097473 
1112.926832  	0.092459 
1114.855648  	0.087683 
1116.784464  	0.082982 
1118.713280  	0.078790 
1120.642096  	0.074998 
1122.570912  	0.071154 
1124.499728  	0.067607 
1126.428544  	0.064091 
1128.357360  	0.060676 
1130.286176  	0.057574 
1132.214992  	0.055113 
1134.143808  	0.052994 
1136.072624  	0.050918 
1138.001440  	0.048931 
1139.930256  	0.047066 
1141.859072  	0.045436 
1143.787888  	0.043786 
1145.716704  	0.042396 
1147.645520  	0.041656 
1149.574336  	0.041013 
1151.503152  	0.040313 
1153.431968  	0.040040 
1155.360784  	0.040037 
1157.289600  	0.040220 
1159.218416  	0.040568 
1161.147232  	0.041073 
1163.076048  	0.041567 
1165.004864  	0.042348 
1166.933680  	0.043186 
1168.862496  	0.044260 
1170.791312  	0.045469 
1172.720128  	0.046536 
1174.648944  	0.047697 
1176.577760  	0.049197 
1178.506576  	0.050635 
1180.435392  	0.051843 
1182.364208  	0.053170 
1184.293024  	0.054849 
1186.221840  	0.056603 
1188.150656  	0.058417 
1190.079472  	0.060533 
1192.008288  	0.062886 
1193.937104  	0.065531 
1195.865920  	0.068634 
1197.794736  	0.071759 
1199.723552  	0.075078 
1201.652368  	0.078763 
1203.581184  	0.082699 
1205.510000  	0.086205 
1207.438816  	0.089810 
1209.367632  	0.093313 
1211.296448  	0.096525 
1213.225264  	0.099447 
1215.154080  	0.101983 
1217.082896  	0.104147 
1219.011712  	0.105808 
1220.940528  	0.107409 
1222.869344  	0.108552 
1224.798160  	0.109323 
1226.726976  	0.109799 
1228.655792  	0.110099 
1230.584608  	0.109999 
1232.513424  	0.109463 
1234.442240  	0.108204 
1236.371056  	0.106569 
1238.299872  	0.104688 
1240.228688  	0.102186 
1242.157504  	0.099055 
1244.086320  	0.095682 
1246.015136  	0.091864 
1247.943952  	0.087965 
1249.872768  	0.084068 
1251.801584  	0.080294 
1253.730400  	0.076484 
1255.659216  	0.072888 
1257.588032  	0.069479 
1259.516848  	0.066178 
1261.445664  	0.063132 
1263.374480  	0.060407 
1265.303296  	0.057933 
1267.232112  	0.055901 
1269.160928  	0.054382 
1271.089744  	0.053371 
1273.018560  	0.053056 
1274.947376  	0.053156 
1276.876192  	0.053092 
1278.805008  	0.052725 
1280.733824  	0.051772 
1282.662640  	0.050013 
1284.591456  	0.047690 
1286.520272  	0.045304 
1288.449088  	0.043382 
1290.377904  	0.041805 
1292.306720  	0.040568 
1294.235536  	0.039127 
1296.164352  	0.037196 
1298.093168  	0.035000 
1300.021984  	0.032875 
1301.950800  	0.030947 
1303.879616  	0.029419 
1305.808432  	0.028247 
1307.737248  	0.027344 
1309.666064  	0.026520 
1311.594880  	0.026231 
1313.523696  	0.026223 
1315.452512  	0.026228 
1317.381328  	0.026513 
1319.310144  	0.026933 
1321.238960  	0.027272 
1323.167776  	0.027696 
1325.096592  	0.027949 
1327.025408  	0.027976 
1328.954224  	0.027677 
1330.883040  	0.027227 
1332.811856  	0.026529 
1334.740672  	0.025975 
1336.669488  	0.025534 
1338.598304  	0.025335 
1340.527120  	0.024915 
1342.455936  	0.024335 
1344.384752  	0.024257 
1346.313568  	0.024609 
1348.242384  	0.025279 
1350.171200  	0.026351 
1352.100016  	0.027557 
1354.028832  	0.028686 
1355.957648  	0.029876 
1357.886464  	0.030989 
1359.815280  	0.031864 
1361.744096  	0.032833 
1363.672912  	0.033928 
1365.601728  	0.034391 
1367.530544  	0.034607 
1369.459360  	0.034711 
1371.388176  	0.034201 
1373.316992  	0.033471 
1375.245808  	0.032652 
1377.174624  	0.031787 
1379.103440  	0.030721 
1381.032256  	0.029655 
1382.961072  	0.028882 
1384.889888  	0.028390 
1386.818704  	0.028027 
1388.747520  	0.027412 
1390.676336  	0.026491 
1392.605152  	0.025420 
1394.533968  	0.024992 
1396.462784  	0.025607 
1398.391600  	0.025750 
1400.320416  	0.026216 
1402.249232  	0.026429 
1404.178048  	0.026996 
1406.106864  	0.027947 
1408.035680  	0.028964 
1409.964496  	0.030019 
1411.893312  	0.031233 
1413.822128  	0.032177 
1415.750944  	0.033148 
1417.679760  	0.033466 
1419.608576  	0.033530 
1421.537392  	0.033405 
1423.466208  	0.032914 
1425.395024  	0.032238 
1427.323840  	0.031121 
1429.252656  	0.029967 
1431.181472  	0.029366 
1433.110288  	0.029183 
1435.039104  	0.028814 
1436.967920  	0.029169 
1438.896736  	0.029615 
1440.825552  	0.029668 
1442.754368  	0.029813 
1444.683184  	0.029651 
1446.612000  	0.029411 
1448.540816  	0.029570 
1450.469632  	0.029777 
1452.398448  	0.029838 
1454.327264  	0.029514 
1456.256080  	0.028601 
1458.184896  	0.029246 
1460.113712  	0.030125 
1462.042528  	0.030271 
1463.971344  	0.030029 
1465.900160  	0.031381 
1467.828976  	0.032814 
1469.757792  	0.033690 
1471.686608  	0.034744 
1473.615424  	0.037803 
1475.544240  	0.039934 
1477.473056  	0.041473 
1479.401872  	0.041891 
1481.330688  	0.041961 
1483.259504  	0.041866 
1485.188320  	0.041053 
1487.117136  	0.039590 
1489.045952  	0.038403 
1490.974768  	0.037041 
1492.903584  	0.035318 
1494.832400  	0.033030 
1496.761216  	0.030846 
1498.690032  	0.029418 
1500.618848  	0.028886 
1502.547664  	0.027740 
1504.476480  	0.025218 
1506.405296  	0.023638 
1508.334112  	0.025980 
1510.262928  	0.025945 
1512.191744  	0.025127 
1514.120560  	0.024210 
1516.049376  	0.023541 
1517.978192  	0.023577 
1519.907008  	0.023438 
1521.835824  	0.024243 
1523.764640  	0.026271 
1525.693456  	0.028094 
1527.622272  	0.029749 
1529.551088  	0.030766 
1531.479904  	0.030944 
1533.408720  	0.030531 
1535.337536  	0.030604 
1537.266352  	0.028490 
1539.195168  	0.024691 
1541.123984  	0.024159 
1543.052800  	0.025818 
1544.981616  	0.026383 
1546.910432  	0.026087 
1548.839248  	0.025474 
1550.768064  	0.025486 
1552.696880  	0.024829 
1554.625696  	0.024577 
1556.554512  	0.023123 
1558.483328  	0.021581 
1560.412144  	0.026537 
1562.340960  	0.028736 
1564.269776  	0.029542 
1566.198592  	0.031334 
1568.127408  	0.032231 
1570.056224  	0.034776 
1571.985040  	0.037587 
1573.913856  	0.037852 
1575.842672  	0.037749 
1577.771488  	0.040148 
1579.700304  	0.040850 
1581.629120  	0.040953 
1583.557936  	0.041237 
1585.486752  	0.042192 
1587.415568  	0.043628 
1589.344384  	0.045891 
1591.273200  	0.048371 
1593.202016  	0.051157 
1595.130832  	0.053873 
1597.059648  	0.056659 
1598.988464  	0.058653 
1600.917280  	0.060218 
1602.846096  	0.061128 
1604.774912  	0.061674 
1606.703728  	0.061389 
1608.632544  	0.061136 
1610.561360  	0.060876 
1612.490176  	0.060869 
1614.418992  	0.059991 
1616.347808  	0.060249 
1618.276624  	0.063131 
1620.205440  	0.065303 
1622.134256  	0.066754 
1624.063072  	0.070871 
1625.991888  	0.074540 
1627.920704  	0.078371 
1629.849520  	0.083116 
1631.778336  	0.086568 
1633.707152  	0.088089 
1635.635968  	0.091770 
1637.564784  	0.097365 
1639.493600  	0.100144 
1641.422416  	0.102252 
1643.351232  	0.103100 
1645.280048  	0.102757 
1647.208864  	0.104386 
1649.137680  	0.105635 
1651.066496  	0.103126 
1652.995312  	0.101557 
1654.924128  	0.106095 
1656.852944  	0.105732 
1658.781760  	0.104830 
1660.710576  	0.103505 
1662.639392  	0.103010 
1664.568208  	0.103550 
1666.497024  	0.102426 
1668.425840  	0.100871 
1670.354656  	0.101393 
1672.283472  	0.101713 
1674.212288  	0.101078 
1676.141104  	0.102608 
1678.069920  	0.103255 
1679.998736  	0.103306 
1681.927552  	0.102210 
1683.856368  	0.101723 
1685.785184  	0.105458 
1687.714000  	0.105217 
1689.642816  	0.104483 
1691.571632  	0.103443 
1693.500448  	0.101179 
1695.429264  	0.098349 
1697.358080  	0.096665 
1699.286896  	0.093178 
1701.215712  	0.092372 
1703.144528  	0.090196 
1705.073344  	0.086733 
1707.002160  	0.084038 
1708.930976  	0.081332 
1710.859792  	0.078020 
1712.788608  	0.074152 
1714.717424  	0.069730 
1716.646240  	0.065016 
1718.575056  	0.061739 
1720.503872  	0.058726 
1722.432688  	0.055144 
1724.361504  	0.051387 
1726.290320  	0.047667 
1728.219136  	0.043877 
1730.147952  	0.040363 
1732.076768  	0.036461 
1734.005584  	0.032580 
1735.934400  	0.029862 
1737.863216  	0.027063 
1739.792032  	0.023680 
1741.720848  	0.021846 
1743.649664  	0.020025 
1745.578480  	0.017885 
1747.507296  	0.015512 
1749.436112  	0.014096 
1751.364928  	0.013667 
1753.293744  	0.013062 
1755.222560  	0.011767 
1757.151376  	0.011101 
1759.080192  	0.010270 
1761.009008  	0.009659 
1762.937824  	0.009614 
1764.866640  	0.009460 
1766.795456  	0.008788 
1768.724272  	0.008468 
1770.653088  	0.006880 
1772.581904  	0.006521 
1774.510720  	0.007540 
1776.439536  	0.007989 
1778.368352  	0.007825 
1780.297168  	0.007793 
1782.225984  	0.007597 
1784.154800  	0.007468 
1786.083616  	0.007494 
1788.012432  	0.007302 
1789.941248  	0.006674 
1791.870064  	0.006244 
1793.798880  	0.006473 
1795.727696  	0.006847 
1797.656512  	0.006496 
1799.585328  	0.006085 
1801.514144  	0.006299 
1803.442960  	0.006255 
1805.371776  	0.005990 
1807.300592  	0.005991 
1809.229408  	0.005470 
1811.158224  	0.005521 
1813.087040  	0.005587 
1815.015856  	0.005280 
1816.944672  	0.005273 
1818.873488  	0.005666 
1820.802304  	0.005687 
1822.731120  	0.005648 
1824.659936  	0.005485 
1826.588752  	0.005518 
1828.517568  	0.004917 
1830.446384  	0.005293 
1832.375200  	0.005851 
1834.304016  	0.005704 
1836.232832  	0.005350 
1838.161648  	0.005639 
1840.090464  	0.005650 
1842.019280  	0.005279 
1843.948096  	0.004803 
1845.876912  	0.005344 
1847.805728  	0.005753 
1849.734544  	0.005914 
1851.663360  	0.005535 
1853.592176  	0.005328 
1855.520992  	0.005249 
1857.449808  	0.005756 
1859.378624  	0.005858 
1861.307440  	0.005496 
1863.236256  	0.005031 
1865.165072  	0.004888 
1867.093888  	0.004848 
1869.022704  	0.005394 
1870.951520  	0.005542 
1872.880336  	0.005552 
1874.809152  	0.005396 
1876.737968  	0.005305 
1878.666784  	0.005149 
1880.595600  	0.005285 
1882.524416  	0.005322 
1884.453232  	0.005256 
1886.382048  	0.005040 
1888.310864  	0.005087 
1890.239680  	0.005320 
1892.168496  	0.005380 
1894.097312  	0.005088 
1896.026128  	0.005208 
1897.954944  	0.005193 
1899.883760  	0.005086 
1901.812576  	0.004773 
1903.741392  	0.004830 
1905.670208  	0.004807 
1907.599024  	0.004910 
1909.527840  	0.004776 
1911.456656  	0.005055 
1913.385472  	0.005321 
1915.314288  	0.005543 
1917.243104  	0.005459 
1919.171920  	0.005293 
1921.100736  	0.004847 
1923.029552  	0.005392 
1924.958368  	0.005227 
1926.887184  	0.005089 
1928.816000  	0.004799 
1930.744816  	0.004692 
1932.673632  	0.004565 
1934.602448  	0.005123 
1936.531264  	0.005460 
1938.460080  	0.005506 
1940.388896  	0.005549 
1942.317712  	0.005933 
1944.246528  	0.005646 
1946.175344  	0.005429 
1948.104160  	0.004355 
1950.032976  	0.004347 
1951.961792  	0.005315 
1953.890608  	0.005859 
1955.819424  	0.005266 
1957.748240  	0.005211 
1959.677056  	0.005698 
1961.605872  	0.005552 
1963.534688  	0.005181 
1965.463504  	0.005762 
1967.392320  	0.005332 
1969.321136  	0.005038 
1971.249952  	0.005110 
1973.178768  	0.006320 
1975.107584  	0.005615 
1977.036400  	0.005083 
1978.965216  	0.006354 
1980.894032  	0.006393 
1982.822848  	0.004904 
1984.751664  	0.005591 
1986.680480  	0.005984 
1988.609296  	0.006407 
1990.538112  	0.006158 
1992.466928  	0.006191 
1994.395744  	0.005619 
1996.324560  	0.005339 
1998.253376  	0.005193 
2000.182192  	0.005295 
2002.111008  	0.004791 
2004.039824  	0.004596 
2005.968640  	0.004562 
2007.897456  	0.005917 
2009.826272  	0.006018 
2011.755088  	0.005115 
2013.683904  	0.005645 
2015.612720  	0.006823 
2017.541536  	0.006735 
2019.470352  	0.005864 
2021.399168  	0.005292 
2023.327984  	0.005963 
2025.256800  	0.005117 
2027.185616  	0.004452 
2029.114432  	0.005353 
2031.043248  	0.005995 
2032.972064  	0.005309 
2034.900880  	0.005955 
2036.829696  	0.005978 
2038.758512  	0.005493 
2040.687328  	0.005490 
2042.616144  	0.005790 
2044.544960  	0.005110 
2046.473776  	0.004756 
2048.402592  	0.005117 
2050.331408  	0.006584 
2052.260224  	0.005687 
2054.189040  	0.005420 
2056.117856  	0.005386 
2058.046672  	0.005515 
2059.975488  	0.005317 
2061.904304  	0.005296 
2063.833120  	0.006020 
2065.761936  	0.006174 
2067.690752  	0.005542 
2069.619568  	0.005017 
2071.548384  	0.004397 
2073.477200  	0.004630 
2075.406016  	0.005439 
2077.334832  	0.005838 
2079.263648  	0.005114 
2081.192464  	0.004938 
2083.121280  	0.005425 
2085.050096  	0.005816 
2086.978912  	0.005349 
2088.907728  	0.005043 
2090.836544  	0.004835 
2092.765360  	0.004658 
2094.694176  	0.004773 
2096.622992  	0.004700 
2098.551808  	0.004218 
2100.480624  	0.004263 
2102.409440  	0.004451 
2104.338256  	0.005189 
2106.267072  	0.005505 
2108.195888  	0.005397 
2110.124704  	0.005477 
2112.053520  	0.005639 
2113.982336  	0.005489 
2115.911152  	0.005573 
2117.839968  	0.005323 
2119.768784  	0.004792 
2121.697600  	0.004306 
2123.626416  	0.003951 
2125.555232  	0.003915 
2127.484048  	0.004208 
2129.412864  	0.003923 
2131.341680  	0.003310 
2133.270496  	0.004056 
2135.199312  	0.004775 
2137.128128  	0.004861 
2139.056944  	0.004539 
2140.985760  	0.003201 
2142.914576  	0.003758 
2144.843392  	0.004308 
2146.772208  	0.004645 
2148.701024  	0.004456 
2150.629840  	0.004069 
2152.558656  	0.003062 
2154.487472  	0.002415 
2156.416288  	0.001825 
2158.345104  	0.004448 
2160.273920  	0.006727 
2162.202736  	0.005852 
2164.131552  	0.005076 
2166.060368  	0.006189 
2167.989184  	0.004661 
2169.918000  	0.003943 
2171.846816  	0.004077 
2173.775632  	0.004613 
2175.704448  	0.005338 
2177.633264  	0.005722 
2179.562080  	0.005406 
2181.490896  	0.005048 
2183.419712  	0.004508 
2185.348528  	0.004531 
2187.277344  	0.004420 
2189.206160  	0.004533 
2191.134976  	0.005460 
2193.063792  	0.007011 
2194.992608  	0.007038 
2196.921424  	0.006124 
2198.850240  	0.006261 
2200.779056  	0.006326 
2202.707872  	0.005782 
2204.636688  	0.005533 
2206.565504  	0.005440 
2208.494320  	0.006045 
2210.423136  	0.005391 
2212.351952  	0.005501 
2214.280768  	0.005557 
2216.209584  	0.005129 
2218.138400  	0.005329 
2220.067216  	0.005732 
2221.996032  	0.005867 
2223.924848  	0.005458 
2225.853664  	0.005109 
2227.782480  	0.005577 
2229.711296  	0.005927 
2231.640112  	0.005633 
2233.568928  	0.005364 
2235.497744  	0.005494 
2237.426560  	0.004912 
2239.355376  	0.004961 
2241.284192  	0.004815 
2243.213008  	0.005135 
2245.141824  	0.005329 
2247.070640  	0.004635 
2248.999456  	0.004529 
2250.928272  	0.005100 
2252.857088  	0.005083 
2254.785904  	0.004840 
2256.714720  	0.005113 
2258.643536  	0.005460 
2260.572352  	0.005201 
2262.501168  	0.005384 
2264.429984  	0.005736 
2266.358800  	0.005951 
2268.287616  	0.005691 
2270.216432  	0.005564 
2272.145248  	0.005515 
2274.074064  	0.005616 
2276.002880  	0.005605 
2277.931696  	0.006013 
2279.860512  	0.006364 
2281.789328  	0.006588 
2283.718144  	0.006502 
2285.646960  	0.006595 
2287.575776  	0.006775 
2289.504592  	0.006476 
2291.433408  	0.006066 
2293.362224  	0.006111 
2295.291040  	0.006341 
2297.219856  	0.006662 
2299.148672  	0.006562 
2301.077488  	0.006451 
2303.006304  	0.006627 
2304.935120  	0.006534 
2306.863936  	0.006286 
2308.792752  	0.006309 
2310.721568  	0.006520 
2312.650384  	0.006405 
2314.579200  	0.005947 
2316.508016  	0.005717 
2318.436832  	0.005358 
2320.365648  	0.004850 
2322.294464  	0.004269 
2324.223280  	0.003317 
2326.152096  	0.001782 
2328.080912  	0.000729 
2330.009728  	0.000032 
2331.938544  	-0.000675 
2333.867360  	-0.001616 
2335.796176  	-0.002186 
2337.724992  	-0.002419 
2339.653808  	-0.002636 
2341.582624  	-0.002538 
2343.511440  	-0.001171 
2345.440256  	0.000852 
2347.369072  	0.002799 
2349.297888  	0.002811 
2351.226704  	0.000888 
2353.155520  	-0.001365 
2355.084336  	-0.003385 
2357.013152  	-0.004943 
2358.941968  	-0.005802 
2360.870784  	-0.006095 
2362.799600  	-0.005332 
2364.728416  	-0.004154 
2366.657232  	-0.002902 
2368.586048  	-0.001648 
2370.514864  	-0.000041 
2372.443680  	0.001749 
2374.372496  	0.003693 
2376.301312  	0.005068 
2378.230128  	0.006085 
2380.158944  	0.006435 
2382.087760  	0.006469 
2384.016576  	0.006537 
2385.945392  	0.006501 
2387.874208  	0.006240 
2389.803024  	0.005873 
2391.731840  	0.005589 
2393.660656  	0.005707 
2395.589472  	0.005871 
2397.518288  	0.005958 
2399.447104  	0.006015 
2401.375920  	0.005975 
2403.304736  	0.006010 
2405.233552  	0.006058 
2407.162368  	0.006093 
2409.091184  	0.005978 
2411.020000  	0.006038 
2412.948816  	0.006202 
2414.877632  	0.006396 
2416.806448  	0.006652 
2418.735264  	0.006682 
2420.664080  	0.006374 
2422.592896  	0.006075 
2424.521712  	0.006094 
2426.450528  	0.006361 
2428.379344  	0.006282 
2430.308160  	0.006221 
2432.236976  	0.006519 
2434.165792  	0.006953 
2436.094608  	0.007234 
2438.023424  	0.007219 
2439.952240  	0.007050 
2441.881056  	0.007068 
2443.809872  	0.007110 
2445.738688  	0.007069 
2447.667504  	0.007284 
2449.596320  	0.007203 
2451.525136  	0.007036 
2453.453952  	0.006984 
2455.382768  	0.007307 
2457.311584  	0.007535 
2459.240400  	0.007457 
2461.169216  	0.007383 
2463.098032  	0.007352 
2465.026848  	0.007313 
2466.955664  	0.007218 
2468.884480  	0.007084 
2470.813296  	0.007184 
2472.742112  	0.007049 
2474.670928  	0.006892 
2476.599744  	0.006957 
2478.528560  	0.007088 
2480.457376  	0.007305 
2482.386192  	0.007454 
2484.315008  	0.007538 
2486.243824  	0.007478 
2488.172640  	0.007336 
2490.101456  	0.007443 
2492.030272  	0.007758 
2493.959088  	0.007582 
2495.887904  	0.007408 
2497.816720  	0.007777 
2499.745536  	0.007920 
2501.674352  	0.007905 
2503.603168  	0.008060 
2505.531984  	0.008227 
2507.460800  	0.007998 
2509.389616  	0.007859 
2511.318432  	0.007687 
2513.247248  	0.007704 
2515.176064  	0.007766 
2517.104880  	0.008242 
2519.033696  	0.008443 
2520.962512  	0.008290 
2522.891328  	0.008399 
2524.820144  	0.008408 
2526.748960  	0.008471 
2528.677776  	0.008554 
2530.606592  	0.008579 
2532.535408  	0.008535 
2534.464224  	0.008603 
2536.393040  	0.008670 
2538.321856  	0.008436 
2540.250672  	0.008598 
2542.179488  	0.008697 
2544.108304  	0.008797 
2546.037120  	0.008874 
2547.965936  	0.009202 
2549.894752  	0.009265 
2551.823568  	0.009127 
2553.752384  	0.009205 
2555.681200  	0.009304 
2557.610016  	0.009305 
2559.538832  	0.009151 
2561.467648  	0.009162 
2563.396464  	0.009605 
2565.325280  	0.009963 
2567.254096  	0.009873 
2569.182912  	0.009601 
2571.111728  	0.009307 
2573.040544  	0.008980 
2574.969360  	0.009085 
2576.898176  	0.009371 
2578.826992  	0.009613 
2580.755808  	0.009707 
2582.684624  	0.009657 
2584.613440  	0.009632 
2586.542256  	0.009786 
2588.471072  	0.010021 
2590.399888  	0.009950 
2592.328704  	0.009916 
2594.257520  	0.010090 
2596.186336  	0.010328 
2598.115152  	0.010352 
2600.043968  	0.010086 
2601.972784  	0.010172 
2603.901600  	0.010454 
2605.830416  	0.010623 
2607.759232  	0.010480 
2609.688048  	0.010510 
2611.616864  	0.010668 
2613.545680  	0.010742 
2615.474496  	0.010754 
2617.403312  	0.010650 
2619.332128  	0.010826 
2621.260944  	0.011048 
2623.189760  	0.010910 
2625.118576  	0.010887 
2627.047392  	0.011081 
2628.976208  	0.011342 
2630.905024  	0.011368 
2632.833840  	0.011448 
2634.762656  	0.011602 
2636.691472  	0.011554 
2638.620288  	0.011490 
2640.549104  	0.011553 
2642.477920  	0.011583 
2644.406736  	0.011609 
2646.335552  	0.011838 
2648.264368  	0.011930 
2650.193184  	0.011964 
2652.122000  	0.012092 
2654.050816  	0.012170 
2655.979632  	0.012095 
2657.908448  	0.012055 
2659.837264  	0.012079 
2661.766080  	0.012073 
2663.694896  	0.012088 
2665.623712  	0.012057 
2667.552528  	0.012025 
2669.481344  	0.012150 
2671.410160  	0.012337 
2673.338976  	0.012415 
2675.267792  	0.012376 
2677.196608  	0.012504 
2679.125424  	0.012794 
2681.054240  	0.012806 
2682.983056  	0.012694 
2684.911872  	0.012772 
2686.840688  	0.012933 
2688.769504  	0.012991 
2690.698320  	0.013013 
2692.627136  	0.013098 
2694.555952  	0.013107 
2696.484768  	0.013030 
2698.413584  	0.013095 
2700.342400  	0.013094 
2702.271216  	0.013239 
2704.200032  	0.013493 
2706.128848  	0.013596 
2708.057664  	0.013616 
2709.986480  	0.013615 
2711.915296  	0.013635 
2713.844112  	0.013637 
2715.772928  	0.013714 
2717.701744  	0.013828 
2719.630560  	0.013903 
2721.559376  	0.013992 
2723.488192  	0.014012 
2725.417008  	0.014142 
2727.345824  	0.014221 
2729.274640  	0.014299 
2731.203456  	0.014399 
2733.132272  	0.014440 
2735.061088  	0.014492 
2736.989904  	0.014553 
2738.918720  	0.014602 
2740.847536  	0.014555 
2742.776352  	0.014587 
2744.705168  	0.014733 
2746.633984  	0.014839 
2748.562800  	0.014930 
2750.491616  	0.015013 
2752.420432  	0.015022 
2754.349248  	0.015001 
2756.278064  	0.015051 
2758.206880  	0.015038 
2760.135696  	0.015201 
2762.064512  	0.015204 
2763.993328  	0.015166 
2765.922144  	0.015260 
2767.850960  	0.015262 
2769.779776  	0.015213 
2771.708592  	0.015402 
2773.637408  	0.015450 
2775.566224  	0.015491 
2777.495040  	0.015478 
2779.423856  	0.015478 
2781.352672  	0.015729 
2783.281488  	0.015915 
2785.210304  	0.015910 
2787.139120  	0.016024 
2789.067936  	0.016098 
2790.996752  	0.016053 
2792.925568  	0.016201 
2794.854384  	0.016334 
2796.783200  	0.016324 
2798.712016  	0.016154 
2800.640832  	0.016149 
2802.569648  	0.016412 
2804.498464  	0.016551 
2806.427280  	0.016541 
2808.356096  	0.016586 
2810.284912  	0.016725 
2812.213728  	0.016730 
2814.142544  	0.016711 
2816.071360  	0.016864 
2818.000176  	0.016929 
2819.928992  	0.016828 
2821.857808  	0.016860 
2823.786624  	0.016876 
2825.715440  	0.016858 
2827.644256  	0.016778 
2829.573072  	0.016883 
2831.501888  	0.016973 
2833.430704  	0.016924 
2835.359520  	0.016825 
2837.288336  	0.016731 
2839.217152  	0.016694 
2841.145968  	0.016621 
2843.074784  	0.016545 
2845.003600  	0.016496 
2846.932416  	0.016560 
2848.861232  	0.016580 
2850.790048  	0.016509 
2852.718864  	0.016459 
2854.647680  	0.016547 
2856.576496  	0.016660 
2858.505312  	0.016606 
2860.434128  	0.016574 
2862.362944  	0.016581 
2864.291760  	0.016525 
2866.220576  	0.016409 
2868.149392  	0.016627 
2870.078208  	0.016851 
2872.007024  	0.016908 
2873.935840  	0.017095 
2875.864656  	0.017372 
2877.793472  	0.017631 
2879.722288  	0.017697 
2881.651104  	0.017772 
2883.579920  	0.017876 
2885.508736  	0.018042 
2887.437552  	0.018223 
2889.366368  	0.018315 
2891.295184  	0.018397 
2893.224000  	0.018374 
2895.152816  	0.018372 
2897.081632  	0.018220 
2899.010448  	0.017947 
2900.939264  	0.017961 
2902.868080  	0.018295 
2904.796896  	0.018516 
2906.725712  	0.018615 
2908.654528  	0.018660 
2910.583344  	0.018901 
2912.512160  	0.019273 
2914.440976  	0.019561 
2916.369792  	0.019774 
2918.298608  	0.019972 
2920.227424  	0.020266 
2922.156240  	0.020631 
2924.085056  	0.020934 
2926.013872  	0.021390 
2927.942688  	0.021941 
2929.871504  	0.022389 
2931.800320  	0.022706 
2933.729136  	0.023021 
2935.657952  	0.023249 
2937.586768  	0.023424 
2939.515584  	0.023567 
2941.444400  	0.023762 
2943.373216  	0.024011 
2945.302032  	0.023994 
2947.230848  	0.023897 
2949.159664  	0.023920 
2951.088480  	0.023880 
2953.017296  	0.023859 
2954.946112  	0.023713 
2956.874928  	0.023473 
2958.803744  	0.023248 
2960.732560  	0.023134 
2962.661376  	0.023060 
2964.590192  	0.022941 
2966.519008  	0.022771 
2968.447824  	0.022553 
2970.376640  	0.022418 
2972.305456  	0.022102 
2974.234272  	0.022002 
2976.163088  	0.022063 
2978.091904  	0.021970 
2980.020720  	0.021778 
2981.949536  	0.021736 
2983.878352  	0.021566 
2985.807168  	0.021317 
2987.735984  	0.021312 
2989.664800  	0.021418 
2991.593616  	0.021795 
2993.522432  	0.021976 
2995.451248  	0.022087 
2997.380064  	0.022218 
2999.308880  	0.022356 
3001.237696  	0.022525 
3003.166512  	0.022698 
3005.095328  	0.022873 
3007.024144  	0.023179 
3008.952960  	0.023384 
3010.881776  	0.023640 
3012.810592  	0.023957 
3014.739408  	0.024074 
3016.668224  	0.024344 
3018.597040  	0.024645 
3020.525856  	0.024765 
3022.454672  	0.024895 
3024.383488  	0.025104 
3026.312304  	0.025362 
3028.241120  	0.025511 
3030.169936  	0.025479 
3032.098752  	0.025680 
3034.027568  	0.025808 
3035.956384  	0.025832 
3037.885200  	0.026018 
3039.814016  	0.026388 
3041.742832  	0.026685 
3043.671648  	0.026841 
3045.600464  	0.026937 
3047.529280  	0.027042 
3049.458096  	0.027180 
3051.386912  	0.027128 
3053.315728  	0.027126 
3055.244544  	0.027463 
3057.173360  	0.027904 
3059.102176  	0.028028 
3061.030992  	0.028173 
3062.959808  	0.028364 
3064.888624  	0.028589 
3066.817440  	0.028844 
3068.746256  	0.028887 
3070.675072  	0.028913 
3072.603888  	0.029236 
3074.532704  	0.029507 
3076.461520  	0.029746 
3078.390336  	0.029980 
3080.319152  	0.030238 
3082.247968  	0.030514 
3084.176784  	0.030732 
3086.105600  	0.030734 
3088.034416  	0.030846 
3089.963232  	0.031217 
3091.892048  	0.031475 
3093.820864  	0.031595 
3095.749680  	0.031763 
3097.678496  	0.031792 
3099.607312  	0.031888 
3101.536128  	0.032052 
3103.464944  	0.032221 
3105.393760  	0.032415 
3107.322576  	0.032713 
3109.251392  	0.032926 
3111.180208  	0.033021 
3113.109024  	0.032977 
3115.037840  	0.032981 
3116.966656  	0.033245 
3118.895472  	0.033559 
3120.824288  	0.033695 
3122.753104  	0.033825 
3124.681920  	0.033970 
3126.610736  	0.034010 
3128.539552  	0.034174 
3130.468368  	0.034266 
3132.397184  	0.034257 
3134.326000  	0.034337 
3136.254816  	0.034413 
3138.183632  	0.034623 
3140.112448  	0.034706 
3142.041264  	0.034746 
3143.970080  	0.034923 
3145.898896  	0.034998 
3147.827712  	0.035081 
3149.756528  	0.035348 
3151.685344  	0.035676 
3153.614160  	0.036055 
3155.542976  	0.036087 
3157.471792  	0.035953 
3159.400608  	0.036208 
3161.329424  	0.036569 
3163.258240  	0.036854 
3165.187056  	0.036962 
3167.115872  	0.036966 
3169.044688  	0.036987 
3170.973504  	0.036962 
3172.902320  	0.037049 
3174.831136  	0.037271 
3176.759952  	0.037482 
3178.688768  	0.037630 
3180.617584  	0.037652 
3182.546400  	0.037401 
3184.475216  	0.037630 
3186.404032  	0.037855 
3188.332848  	0.037832 
3190.261664  	0.037995 
3192.190480  	0.038038 
3194.119296  	0.037982 
3196.048112  	0.038007 
3197.976928  	0.038184 
3199.905744  	0.038200 
3201.834560  	0.038102 
3203.763376  	0.038101 
3205.692192  	0.038275 
3207.621008  	0.038276 
3209.549824  	0.038116 
3211.478640  	0.038032 
3213.407456  	0.037915 
3215.336272  	0.037891 
3217.265088  	0.037704 
3219.193904  	0.037530 
3221.122720  	0.037557 
3223.051536  	0.037494 
3224.980352  	0.037349 
3226.909168  	0.037209 
3228.837984  	0.037024 
3230.766800  	0.037048 
3232.695616  	0.037218 
3234.624432  	0.037155 
3236.553248  	0.037026 
3238.482064  	0.036946 
3240.410880  	0.036942 
3242.339696  	0.036714 
3244.268512  	0.036584 
3246.197328  	0.036705 
3248.126144  	0.036800 
3250.054960  	0.036646 
3251.983776  	0.036495 
3253.912592  	0.036660 
3255.841408  	0.036774 
3257.770224  	0.036771 
3259.699040  	0.036781 
3261.627856  	0.036868 
3263.556672  	0.036937 
3265.485488  	0.036885 
3267.414304  	0.036995 
3269.343120  	0.037189 
3271.271936  	0.037303 
3273.200752  	0.037413 
3275.129568  	0.037485 
3277.058384  	0.037420 
3278.987200  	0.037558 
3280.916016  	0.037677 
3282.844832  	0.037625 
3284.773648  	0.037721 
3286.702464  	0.037819 
3288.631280  	0.037840 
3290.560096  	0.037812 
3292.488912  	0.037823 
3294.417728  	0.037868 
3296.346544  	0.037945 
3298.275360  	0.037977 
3300.204176  	0.038178 
3302.132992  	0.038279 
3304.061808  	0.038371 
3305.990624  	0.038517 
3307.919440  	0.038701 
3309.848256  	0.038812 
3311.777072  	0.038749 
3313.705888  	0.038759 
3315.634704  	0.039022 
3317.563520  	0.039266 
3319.492336  	0.039384 
3321.421152  	0.039410 
3323.349968  	0.039561 
3325.278784  	0.039814 
3327.207600  	0.039883 
3329.136416  	0.039754 
3331.065232  	0.039677 
3332.994048  	0.039798 
3334.922864  	0.039831 
3336.851680  	0.039740 
3338.780496  	0.039690 
3340.709312  	0.039646 
3342.638128  	0.039636 
3344.566944  	0.039605 
3346.495760  	0.039567 
3348.424576  	0.039504 
3350.353392  	0.039290 
3352.282208  	0.039219 
3354.211024  	0.039352 
3356.139840  	0.039314 
3358.068656  	0.038949 
3359.997472  	0.038538 
3361.926288  	0.038392 
3363.855104  	0.038181 
3365.783920  	0.038046 
3367.712736  	0.038032 
3369.641552  	0.037810 
3371.570368  	0.037679 
3373.499184  	0.037583 
3375.428000  	0.037290 
3377.356816  	0.037123 
3379.285632  	0.037132 
3381.214448  	0.037098 
3383.143264  	0.036926 
3385.072080  	0.036730 
3387.000896  	0.036519 
3388.929712  	0.036244 
3390.858528  	0.035977 
3392.787344  	0.035916 
3394.716160  	0.035661 
3396.644976  	0.035520 
3398.573792  	0.035416 
3400.502608  	0.034971 
3402.431424  	0.034624 
3404.360240  	0.034375 
3406.289056  	0.034117 
3408.217872  	0.033946 
3410.146688  	0.033730 
3412.075504  	0.033847 
3414.004320  	0.033976 
3415.933136  	0.033560 
3417.861952  	0.033054 
3419.790768  	0.032852 
3421.719584  	0.032630 
3423.648400  	0.032365 
3425.577216  	0.032402 
3427.506032  	0.032278 
3429.434848  	0.031769 
3431.363664  	0.031619 
3433.292480  	0.031684 
3435.221296  	0.031513 
3437.150112  	0.031296 
3439.078928  	0.031121 
3441.007744  	0.030813 
3442.936560  	0.030653 
3444.865376  	0.030273 
3446.794192  	0.029794 
3448.723008  	0.029744 
3450.651824  	0.029511 
3452.580640  	0.029265 
3454.509456  	0.028949 
3456.438272  	0.028598 
3458.367088  	0.028469 
3460.295904  	0.028391 
3462.224720  	0.028263 
3464.153536  	0.027832 
3466.082352  	0.027476 
3468.011168  	0.027137 
3469.939984  	0.026772 
3471.868800  	0.026487 
3473.797616  	0.026244 
3475.726432  	0.025869 
3477.655248  	0.025456 
3479.584064  	0.025268 
3481.512880  	0.025216 
3483.441696  	0.024872 
3485.370512  	0.024195 
3487.299328  	0.024002 
3489.228144  	0.023985 
3491.156960  	0.023645 
3493.085776  	0.023467 
3495.014592  	0.023264 
3496.943408  	0.023033 
3498.872224  	0.022502 
3500.801040  	0.022153 
3502.729856  	0.022171 
3504.658672  	0.021998 
3506.587488  	0.021265 
3508.516304  	0.020877 
3510.445120  	0.021020 
3512.373936  	0.020948 
3514.302752  	0.020649 
3516.231568  	0.020192 
3518.160384  	0.019864 
3520.089200  	0.019685 
3522.018016  	0.019533 
3523.946832  	0.019663 
3525.875648  	0.019495 
3527.804464  	0.019011 
3529.733280  	0.018762 
3531.662096  	0.018638 
3533.590912  	0.018294 
3535.519728  	0.018131 
3537.448544  	0.018167 
3539.377360  	0.017804 
3541.306176  	0.017301 
3543.234992  	0.016895 
3545.163808  	0.017134 
3547.092624  	0.017211 
3549.021440  	0.016371 
3550.950256  	0.015655 
3552.879072  	0.016082 
3554.807888  	0.016164 
3556.736704  	0.015717 
3558.665520  	0.015465 
3560.594336  	0.015529 
3562.523152  	0.015027 
3564.451968  	0.014387 
3566.380784  	0.014610 
3568.309600  	0.015183 
3570.238416  	0.014404 
3572.167232  	0.013563 
3574.096048  	0.013423 
3576.024864  	0.013140 
3577.953680  	0.012795 
3579.882496  	0.012639 
3581.811312  	0.012546 
3583.740128  	0.012114 
3585.668944  	0.011552 
3587.597760  	0.012245 
3589.526576  	0.012375 
3591.455392  	0.011089 
3593.384208  	0.010450 
3595.313024  	0.010343 
3597.241840  	0.010082 
3599.170656  	0.009412 
3601.099472  	0.009315 
3603.028288  	0.009372 
3604.957104  	0.008668 
3606.885920  	0.007856 
3608.814736  	0.008109 
3610.743552  	0.007927 
3612.672368  	0.007334 
3614.601184  	0.006999 
3616.530000  	0.005983 
3618.458816  	0.005739 
3620.387632  	0.006533 
3622.316448  	0.006243 
3624.245264  	0.005513 
3626.174080  	0.004202 
3628.102896  	0.003384 
3630.031712  	0.005325 
3631.960528  	0.005060 
3633.889344  	0.004399 
3635.818160  	0.003872 
3637.746976  	0.003562 
3639.675792  	0.003774 
3641.604608  	0.003540 
3643.533424  	0.002796 
3645.462240  	0.001209 
3647.391056  	0.000140 
3649.319872  	0.000391 
3651.248688  	0.001841 
3653.177504  	0.001643 
3655.106320  	0.000587 
3657.035136  	0.001176 
3658.963952  	0.001259 
3660.892768  	0.000693 
3662.821584  	0.000334 
3664.750400  	0.000171 
3666.679216  	-0.000746 
3668.608032  	-0.002124 
3670.536848  	-0.001516 
3672.465664  	-0.001481 
3674.394480  	-0.003390 
3676.323296  	-0.001755 
3678.252112  	-0.000617 
3680.180928  	-0.000307 
3682.109744  	-0.000283 
3684.038560  	-0.000783 
3685.967376  	-0.002100 
3687.896192  	-0.003514 
3689.825008  	-0.002687 
3691.753824  	-0.001184 
3693.682640  	-0.000754 
3695.611456  	-0.001006 
3697.540272  	-0.001032 
3699.469088  	-0.001460 
3701.397904  	-0.001184 
3703.326720  	-0.000552 
3705.255536  	-0.000738 
3707.184352  	-0.001600 
3709.113168  	-0.002651 
3711.041984  	-0.002659 
3712.970800  	-0.001214 
3714.899616  	-0.000455 
3716.828432  	-0.000698 
3718.757248  	-0.001009 
3720.686064  	-0.001468 
3722.614880  	-0.001263 
3724.543696  	-0.000816 
3726.472512  	-0.000425 
3728.401328  	-0.000882 
3730.330144  	-0.002668 
3732.258960  	-0.003536 
3734.187776  	-0.002775 
3736.116592  	-0.000915 
3738.045408  	-0.000794 
3739.974224  	-0.001544 
3741.903040  	-0.002574 
3743.831856  	-0.002902 
3745.760672  	-0.001081 
3747.689488  	-0.002798 
3749.618304  	-0.004224 
3751.547120  	-0.002991 
3753.475936  	-0.000813 
3755.404752  	-0.001070 
3757.333568  	-0.001521 
3759.262384  	-0.001274 
3761.191200  	-0.000488 
3763.120016  	-0.000849 
3765.048832  	-0.000908 
3766.977648  	-0.000850 
3768.906464  	-0.001491 
3770.835280  	-0.000540 
3772.764096  	0.000042 
3774.692912  	-0.000297 
3776.621728  	-0.001089 
3778.550544  	-0.001487 
3780.479360  	-0.000681 
3782.408176  	-0.000663 
3784.336992  	-0.000938 
3786.265808  	-0.000588 
3788.194624  	-0.000447 
3790.123440  	-0.000624 
3792.052256  	-0.000785 
3793.981072  	-0.001312 
3795.909888  	-0.001775 
3797.838704  	-0.001480 
3799.767520  	-0.002614 
3801.696336  	-0.002153 
3803.625152  	-0.001219 
3805.553968  	-0.002217 
3807.482784  	-0.001249 
3809.411600  	-0.000381 
3811.340416  	-0.000393 
3813.269232  	-0.001292 
3815.198048  	-0.002436 
3817.126864  	-0.001575 
3819.055680  	-0.002625 
3820.984496  	-0.002529 
3822.913312  	-0.000588 
3824.842128  	-0.001054 
3826.770944  	-0.001112 
3828.699760  	-0.001093 
3830.628576  	-0.001849 
3832.557392  	-0.001954 
3834.486208  	-0.002513 
3836.415024  	-0.003097 
3838.343840  	-0.002311 
3840.272656  	-0.001563 
3842.201472  	-0.001528 
3844.130288  	-0.001100 
3846.059104  	-0.000613 
3847.987920  	-0.001056 
3849.916736  	-0.002289 
3851.845552  	-0.004225 
3853.774368  	-0.002321 
3855.703184  	-0.000320 
3857.632000  	-0.000698 
3859.560816  	-0.001159 
3861.489632  	-0.001634 
3863.418448  	-0.001834 
3865.347264  	-0.001137 
3867.276080  	-0.001494 
3869.204896  	-0.002046 
3871.133712  	-0.000578 
3873.062528  	-0.001005 
3874.991344  	-0.000450 
3876.920160  	-0.000770 
3878.848976  	-0.001593 
3880.777792  	-0.000800 
3882.706608  	-0.000540 
3884.635424  	-0.001270 
3886.564240  	-0.000357 
3888.493056  	-0.000788 
3890.421872  	-0.001293 
3892.350688  	-0.000371 
3894.279504  	-0.000236 
3896.208320  	-0.000818 
3898.137136  	-0.001169 
3900.065952  	-0.000975 
3901.994768  	-0.000936 
3903.923584  	-0.000565 
3905.852400  	-0.000047 
3907.781216  	-0.000305 
3909.710032  	-0.000477 
3911.638848  	-0.000406 
3913.567664  	-0.000439 
3915.496480  	-0.000332 
3917.425296  	0.000347 
3919.354112  	0.000329 
3921.282928  	0.000035 
3923.211744  	-0.000297 
3925.140560  	0.000039 
3927.069376  	-0.000187 
3928.998192  	-0.000595 
3930.927008  	-0.000144 
3932.855824  	0.000440 
3934.784640  	0.000069 
3936.713456  	-0.000146 
3938.642272  	-0.000082 
3940.571088  	-0.000360 
3942.499904  	0.000026 
3944.428720  	0.000325 
3946.357536  	-0.000043 
3948.286352  	-0.000082 
3950.215168  	-0.000215 
3952.143984  	-0.000432 
3954.072800  	-0.000536 
3956.001616  	-0.000455 
3957.930432  	-0.000189 
3959.859248  	-0.000084 
3961.788064  	-0.000056 
3963.716880  	-0.000091 
3965.645696  	-0.000230 
3967.574512  	-0.000047 
3969.503328  	-0.000054 
3971.432144  	-0.000411 
3973.360960  	-0.000384 
3975.289776  	-0.000010 
3977.218592  	0.000138 
3979.147408  	0.000192 
3981.076224  	0.000031 
3983.005040  	-0.000233 
3984.933856  	-0.000156 
3986.862672  	-0.000029 
3988.791488  	-0.000098 
3990.720304  	-0.000069 
3992.649120  	-0.000062 
3994.577936  	-0.000119 
3996.506752  	-0.000214 
3998.435568  	-0.000250 
4000.364384  	-0.000314 