##TITLE=No Description
##DATA TYPE=INFRARED SPECTRUM
##XUNITS=1/CM
##YUNITS=Abs
399.264912  	0.576032 
401.193728  	0.553518 
403.122544  	0.555805 
405.051360  	0.550968 
406.980176  	0.555954 
408.908992  	0.548315 
410.837808  	0.550381 
412.766624  	0.554042 
414.695440  	0.549263 
416.624256  	0.535896 
418.553072  	0.530142 
420.481888  	0.516523 
422.410704  	0.524867 
424.339520  	0.521657 
426.268336  	0.532729 
428.197152  	0.533530 
430.125968  	0.521065 
432.054784  	0.512602 
433.983600  	0.509654 
435.912416  	0.503881 
437.841232  	0.507809 
439.770048  	0.506351 
441.698864  	0.504779 
443.627680  	0.499869 
445.556496  	0.500526 
447.485312  	0.499674 
449.414128  	0.494272 
451.342944  	0.487099 
453.271760  	0.488578 
455.200576  	0.486839 
457.129392  	0.485605 
459.058208  	0.480959 
460.987024  	0.488419 
462.915840  	0.492257 
464.844656  	0.492410 
466.773472  	0.490559 
468.702288  	0.492131 
470.631104  	0.490267 
472.559920  	0.489574 
474.488736  	0.487611 
476.417552  	0.484344 
478.346368  	0.478083 
480.275184  	0.478704 
482.204000  	0.483194 
484.132816  	0.487387 
486.061632  	0.481828 
487.990448  	0.480808 
489.919264  	0.480663 
491.848080  	0.478008 
493.776896  	0.474723 
495.705712  	0.473877 
497.634528  	0.472273 
499.563344  	0.472601 
501.492160  	0.469081 
503.420976  	0.468934 
505.349792  	0.468056 
507.278608  	0.469684 
509.207424  	0.470296 
511.136240  	0.473256 
513.065056  	0.473688 
514.993872  	0.471135 
516.922688  	0.469293 
518.851504  	0.471409 
520.780320  	0.471485 
522.709136  	0.471472 
524.637952  	0.468787 
526.566768  	0.468435 
528.495584  	0.466805 
530.424400  	0.463478 
532.353216  	0.458748 
534.282032  	0.454502 
536.210848  	0.449706 
538.139664  	0.449299 
540.068480  	0.446725 
541.997296  	0.441630 
543.926112  	0.437427 
545.854928  	0.437047 
547.783744  	0.432852 
549.712560  	0.428451 
551.641376  	0.425300 
553.570192  	0.422523 
555.499008  	0.418878 
557.427824  	0.416681 
559.356640  	0.413637 
561.285456  	0.411363 
563.214272  	0.408022 
565.143088  	0.405880 
567.071904  	0.402712 
569.000720  	0.399288 
570.929536  	0.395789 
572.858352  	0.392452 
574.787168  	0.389146 
576.715984  	0.386627 
578.644800  	0.382615 
580.573616  	0.379854 
582.502432  	0.376133 
584.431248  	0.372909 
586.360064  	0.370800 
588.288880  	0.369286 
590.217696  	0.366608 
592.146512  	0.365256 
594.075328  	0.363605 
596.004144  	0.361131 
597.932960  	0.359166 
599.861776  	0.358604 
601.790592  	0.357671 
603.719408  	0.356968 
605.648224  	0.355483 
607.577040  	0.355039 
609.505856  	0.354152 
611.434672  	0.352354 
613.363488  	0.349904 
615.292304  	0.349174 
617.221120  	0.347604 
619.149936  	0.345719 
621.078752  	0.342689 
623.007568  	0.340859 
624.936384  	0.339297 
626.865200  	0.337883 
628.794016  	0.336100 
630.722832  	0.334813 
632.651648  	0.333419 
634.580464  	0.333121 
636.509280  	0.333033 
638.438096  	0.332259 
640.366912  	0.331039 
642.295728  	0.329492 
644.224544  	0.326811 
646.153360  	0.324028 
648.082176  	0.320622 
650.010992  	0.317746 
651.939808  	0.314382 
653.868624  	0.311253 
655.797440  	0.308076 
657.726256  	0.304904 
659.655072  	0.301124 
661.583888  	0.298052 
663.512704  	0.295198 
665.441520  	0.293206 
667.370336  	0.288582 
669.299152  	0.284079 
671.227968  	0.283305 
673.156784  	0.281260 
675.085600  	0.279075 
677.014416  	0.277516 
678.943232  	0.275730 
680.872048  	0.273738 
682.800864  	0.272112 
684.729680  	0.270793 
686.658496  	0.268677 
688.587312  	0.267119 
690.516128  	0.265472 
692.444944  	0.264100 
694.373760  	0.262406 
696.302576  	0.260998 
698.231392  	0.259131 
700.160208  	0.256834 
702.089024  	0.253981 
704.017840  	0.252302 
705.946656  	0.249995 
707.875472  	0.247498 
709.804288  	0.245450 
711.733104  	0.243948 
713.661920  	0.242477 
715.590736  	0.241659 
717.519552  	0.240875 
719.448368  	0.240834 
721.377184  	0.241513 
723.306000  	0.241968 
725.234816  	0.241111 
727.163632  	0.239398 
729.092448  	0.237119 
731.021264  	0.234715 
732.950080  	0.232408 
734.878896  	0.230269 
736.807712  	0.227881 
738.736528  	0.225830 
740.665344  	0.224341 
742.594160  	0.223266 
744.522976  	0.221858 
746.451792  	0.220227 
748.380608  	0.219032 
750.309424  	0.218479 
752.238240  	0.217711 
754.167056  	0.217087 
756.095872  	0.216077 
758.024688  	0.214754 
759.953504  	0.213939 
761.882320  	0.213696 
763.811136  	0.213356 
765.739952  	0.212613 
767.668768  	0.211245 
769.597584  	0.210023 
771.526400  	0.209659 
773.455216  	0.210759 
775.384032  	0.212384 
777.312848  	0.214830 
779.241664  	0.217666 
781.170480  	0.218113 
783.099296  	0.215479 
785.028112  	0.211083 
786.956928  	0.205619 
788.885744  	0.200883 
790.814560  	0.197444 
792.743376  	0.195407 
794.672192  	0.194015 
796.601008  	0.192988 
798.529824  	0.191387 
800.458640  	0.188506 
802.387456  	0.185551 
804.316272  	0.184023 
806.245088  	0.183171 
808.173904  	0.182642 
810.102720  	0.182244 
812.031536  	0.181615 
813.960352  	0.181084 
815.889168  	0.180794 
817.817984  	0.180411 
819.746800  	0.179766 
821.675616  	0.178989 
823.604432  	0.178298 
825.533248  	0.177521 
827.462064  	0.176476 
829.390880  	0.175032 
831.319696  	0.173679 
833.248512  	0.172626 
835.177328  	0.171142 
837.106144  	0.168740 
839.034960  	0.165948 
840.963776  	0.163633 
842.892592  	0.161450 
844.821408  	0.158858 
846.750224  	0.156198 
848.679040  	0.154184 
850.607856  	0.152254 
852.536672  	0.150544 
854.465488  	0.149130 
856.394304  	0.147736 
858.323120  	0.146421 
860.251936  	0.145039 
862.180752  	0.143291 
864.109568  	0.141857 
866.038384  	0.140535 
867.967200  	0.139000 
869.896016  	0.137602 
871.824832  	0.136299 
873.753648  	0.135278 
875.682464  	0.135068 
877.611280  	0.135469 
879.540096  	0.135739 
881.468912  	0.136049 
883.397728  	0.136275 
885.326544  	0.135988 
887.255360  	0.135658 
889.184176  	0.135256 
891.112992  	0.134566 
893.041808  	0.133089 
894.970624  	0.131209 
896.899440  	0.129103 
898.828256  	0.126302 
900.757072  	0.123379 
902.685888  	0.120740 
904.614704  	0.118910 
906.543520  	0.118067 
908.472336  	0.118454 
910.401152  	0.119802 
912.329968  	0.121612 
914.258784  	0.123723 
916.187600  	0.125784 
918.116416  	0.127143 
920.045232  	0.127609 
921.974048  	0.127279 
923.902864  	0.126621 
925.831680  	0.125629 
927.760496  	0.124528 
929.689312  	0.123528 
931.618128  	0.123191 
933.546944  	0.123456 
935.475760  	0.123546 
937.404576  	0.123624 
939.333392  	0.124149 
941.262208  	0.125021 
943.191024  	0.126768 
945.119840  	0.129530 
947.048656  	0.132864 
948.977472  	0.136916 
950.906288  	0.141762 
952.835104  	0.146990 
954.763920  	0.151969 
956.692736  	0.156728 
958.621552  	0.160942 
960.550368  	0.163886 
962.479184  	0.165344 
964.408000  	0.164567 
966.336816  	0.161944 
968.265632  	0.157202 
970.194448  	0.151106 
972.123264  	0.144345 
974.052080  	0.136857 
975.980896  	0.129332 
977.909712  	0.122240 
979.838528  	0.116256 
981.767344  	0.111428 
983.696160  	0.107891 
985.624976  	0.105991 
987.553792  	0.106059 
989.482608  	0.107788 
991.411424  	0.110782 
993.340240  	0.115108 
995.269056  	0.120739 
997.197872  	0.126665 
999.126688  	0.132257 
1001.055504  	0.137718 
1002.984320  	0.143271 
1004.913136  	0.148526 
1006.841952  	0.153000 
1008.770768  	0.157080 
1010.699584  	0.160138 
1012.628400  	0.162076 
1014.557216  	0.163390 
1016.486032  	0.164170 
1018.414848  	0.164654 
1020.343664  	0.165014 
1022.272480  	0.164991 
1024.201296  	0.165102 
1026.130112  	0.165302 
1028.058928  	0.165758 
1029.987744  	0.166206 
1031.916560  	0.167819 
1033.845376  	0.170207 
1035.774192  	0.173111 
1037.703008  	0.176172 
1039.631824  	0.180283 
1041.560640  	0.185667 
1043.489456  	0.192762 
1045.418272  	0.201820 
1047.347088  	0.212325 
1049.275904  	0.223363 
1051.204720  	0.234734 
1053.133536  	0.244371 
1055.062352  	0.252417 
1056.991168  	0.257636 
1058.919984  	0.260323 
1060.848800  	0.260859 
1062.777616  	0.260316 
1064.706432  	0.258290 
1066.635248  	0.255120 
1068.564064  	0.250625 
1070.492880  	0.246011 
1072.421696  	0.240749 
1074.350512  	0.236024 
1076.279328  	0.231689 
1078.208144  	0.228247 
1080.136960  	0.225304 
1082.065776  	0.222211 
1083.994592  	0.218739 
1085.923408  	0.215771 
1087.852224  	0.212316 
1089.781040  	0.208445 
1091.709856  	0.203520 
1093.638672  	0.197748 
1095.567488  	0.190844 
1097.496304  	0.183625 
1099.425120  	0.175836 
1101.353936  	0.168101 
1103.282752  	0.160152 
1105.211568  	0.151973 
1107.140384  	0.143767 
1109.069200  	0.135724 
1110.998016  	0.128428 
1112.926832  	0.121442 
1114.855648  	0.114617 
1116.784464  	0.108318 
1118.713280  	0.102660 
1120.642096  	0.097276 
1122.570912  	0.092177 
1124.499728  	0.087536 
1126.428544  	0.082908 
1128.357360  	0.078544 
1130.286176  	0.074698 
1132.214992  	0.071284 
1134.143808  	0.068093 
1136.072624  	0.065288 
1138.001440  	0.062781 
1139.930256  	0.060345 
1141.859072  	0.058098 
1143.787888  	0.055818 
1145.716704  	0.054040 
1147.645520  	0.052725 
1149.574336  	0.051896 
1151.503152  	0.051177 
1153.431968  	0.050922 
1155.360784  	0.050954 
1157.289600  	0.051186 
1159.218416  	0.051772 
1161.147232  	0.052629 
1163.076048  	0.053613 
1165.004864  	0.054890 
1166.933680  	0.056127 
1168.862496  	0.057675 
1170.791312  	0.059457 
1172.720128  	0.061239 
1174.648944  	0.063014 
1176.577760  	0.064960 
1178.506576  	0.067006 
1180.435392  	0.068997 
1182.364208  	0.070933 
1184.293024  	0.073273 
1186.221840  	0.075835 
1188.150656  	0.078556 
1190.079472  	0.081493 
1192.008288  	0.084980 
1193.937104  	0.089068 
1195.865920  	0.093383 
1197.794736  	0.097818 
1199.723552  	0.102925 
1201.652368  	0.108308 
1203.581184  	0.113447 
1205.510000  	0.118473 
1207.438816  	0.123708 
1209.367632  	0.128760 
1211.296448  	0.133375 
1213.225264  	0.137603 
1215.154080  	0.141374 
1217.082896  	0.144561 
1219.011712  	0.146961 
1220.940528  	0.149201 
1222.869344  	0.150858 
1224.798160  	0.151784 
1226.726976  	0.152300 
1228.655792  	0.152514 
1230.584608  	0.152149 
1232.513424  	0.151262 
1234.442240  	0.149384 
1236.371056  	0.146861 
1238.299872  	0.143872 
1240.228688  	0.140386 
1242.157504  	0.135844 
1244.086320  	0.130983 
1246.015136  	0.125818 
1247.943952  	0.120659 
1249.872768  	0.115442 
1251.801584  	0.110228 
1253.730400  	0.105057 
1255.659216  	0.100149 
1257.588032  	0.095420 
1259.516848  	0.090764 
1261.445664  	0.086450 
1263.374480  	0.082561 
1265.303296  	0.079180 
1267.232112  	0.076354 
1269.160928  	0.074298 
1271.089744  	0.073043 
1273.018560  	0.072579 
1274.947376  	0.072485 
1276.876192  	0.072414 
1278.805008  	0.071956 
1280.733824  	0.070631 
1282.662640  	0.068238 
1284.591456  	0.065104 
1286.520272  	0.061906 
1288.449088  	0.059241 
1290.377904  	0.056995 
1292.306720  	0.055162 
1294.235536  	0.053246 
1296.164352  	0.050781 
1298.093168  	0.047783 
1300.021984  	0.044899 
1301.950800  	0.042238 
1303.879616  	0.040144 
1305.808432  	0.038535 
1307.737248  	0.037343 
1309.666064  	0.036301 
1311.594880  	0.035831 
1313.523696  	0.035688 
1315.452512  	0.035773 
1317.381328  	0.036083 
1319.310144  	0.036654 
1321.238960  	0.037347 
1323.167776  	0.038066 
1325.096592  	0.038460 
1327.025408  	0.038541 
1328.954224  	0.038083 
1330.883040  	0.037358 
1332.811856  	0.036497 
1334.740672  	0.035859 
1336.669488  	0.035322 
1338.598304  	0.034953 
1340.527120  	0.034238 
1342.455936  	0.033684 
1344.384752  	0.033680 
1346.313568  	0.034306 
1348.242384  	0.035333 
1350.171200  	0.036789 
1352.100016  	0.038420 
1354.028832  	0.040068 
1355.957648  	0.041735 
1357.886464  	0.043436 
1359.815280  	0.044907 
1361.744096  	0.046278 
1363.672912  	0.047547 
1365.601728  	0.048359 
1367.530544  	0.048853 
1369.459360  	0.049082 
1371.388176  	0.048732 
1373.316992  	0.047897 
1375.245808  	0.046753 
1377.174624  	0.045699 
1379.103440  	0.044310 
1381.032256  	0.043076 
1382.961072  	0.042049 
1384.889888  	0.041390 
1386.818704  	0.040573 
1388.747520  	0.039461 
1390.676336  	0.038602 
1392.605152  	0.038111 
1394.533968  	0.037565 
1396.462784  	0.037542 
1398.391600  	0.037654 
1400.320416  	0.038201 
1402.249232  	0.038976 
1404.178048  	0.040060 
1406.106864  	0.041254 
1408.035680  	0.042515 
1409.964496  	0.043897 
1411.893312  	0.045441 
1413.822128  	0.046638 
1415.750944  	0.047777 
1417.679760  	0.048124 
1419.608576  	0.047525 
1421.537392  	0.047143 
1423.466208  	0.046560 
1425.395024  	0.045413 
1427.323840  	0.044115 
1429.252656  	0.042491 
1431.181472  	0.041503 
1433.110288  	0.041301 
1435.039104  	0.041189 
1436.967920  	0.041043 
1438.896736  	0.041457 
1440.825552  	0.041861 
1442.754368  	0.042204 
1444.683184  	0.042186 
1446.612000  	0.042087 
1448.540816  	0.042138 
1450.469632  	0.042452 
1452.398448  	0.042572 
1454.327264  	0.042590 
1456.256080  	0.041639 
1458.184896  	0.041279 
1460.113712  	0.042377 
1462.042528  	0.043072 
1463.971344  	0.042971 
1465.900160  	0.044324 
1467.828976  	0.046368 
1469.757792  	0.048074 
1471.686608  	0.049751 
1473.615424  	0.053288 
1475.544240  	0.056132 
1477.473056  	0.058112 
1479.401872  	0.058875 
1481.330688  	0.059033 
1483.259504  	0.058801 
1485.188320  	0.058022 
1487.117136  	0.056065 
1489.045952  	0.053965 
1490.974768  	0.051503 
1492.903584  	0.049563 
1494.832400  	0.047005 
1496.761216  	0.043752 
1498.690032  	0.041508 
1500.618848  	0.040466 
1502.547664  	0.039294 
1504.476480  	0.037086 
1506.405296  	0.034608 
1508.334112  	0.035631 
1510.262928  	0.035782 
1512.191744  	0.035083 
1514.120560  	0.034338 
1516.049376  	0.033667 
1517.978192  	0.033427 
1519.907008  	0.033777 
1521.835824  	0.034799 
1523.764640  	0.037448 
1525.693456  	0.039763 
1527.622272  	0.041745 
1529.551088  	0.043240 
1531.479904  	0.043899 
1533.408720  	0.043198 
1535.337536  	0.043040 
1537.266352  	0.041442 
1539.195168  	0.037120 
1541.123984  	0.035098 
1543.052800  	0.036553 
1544.981616  	0.036746 
1546.910432  	0.036382 
1548.839248  	0.035942 
1550.768064  	0.035885 
1552.696880  	0.035485 
1554.625696  	0.035378 
1556.554512  	0.034376 
1558.483328  	0.032441 
1560.412144  	0.036674 
1562.340960  	0.040335 
1564.269776  	0.042001 
1566.198592  	0.044582 
1568.127408  	0.046439 
1570.056224  	0.049644 
1571.985040  	0.053404 
1573.913856  	0.054963 
1575.842672  	0.054897 
1577.771488  	0.056788 
1579.700304  	0.057879 
1581.629120  	0.058262 
1583.557936  	0.058697 
1585.486752  	0.060015 
1587.415568  	0.062072 
1589.344384  	0.065221 
1591.273200  	0.068754 
1593.202016  	0.072797 
1595.130832  	0.076732 
1597.059648  	0.080566 
1598.988464  	0.083420 
1600.917280  	0.085731 
1602.846096  	0.086963 
1604.774912  	0.087710 
1606.703728  	0.087342 
1608.632544  	0.086861 
1610.561360  	0.086372 
1612.490176  	0.086553 
1614.418992  	0.086270 
1616.347808  	0.086463 
1618.276624  	0.089429 
1620.205440  	0.093218 
1622.134256  	0.096159 
1624.063072  	0.101444 
1625.991888  	0.106661 
1627.920704  	0.111970 
1629.849520  	0.118194 
1631.778336  	0.123796 
1633.707152  	0.127327 
1635.635968  	0.131334 
1637.564784  	0.137249 
1639.493600  	0.141843 
1641.422416  	0.144841 
1643.351232  	0.146834 
1645.280048  	0.146981 
1647.208864  	0.147011 
1649.137680  	0.148329 
1651.066496  	0.148208 
1652.995312  	0.144453 
1654.924128  	0.145699 
1656.852944  	0.146793 
1658.781760  	0.146397 
1660.710576  	0.145151 
1662.639392  	0.143799 
1664.568208  	0.143366 
1666.497024  	0.143096 
1668.425840  	0.141557 
1670.354656  	0.140586 
1672.283472  	0.140897 
1674.212288  	0.140760 
1676.141104  	0.140861 
1678.069920  	0.142244 
1679.998736  	0.142886 
1681.927552  	0.142953 
1683.856368  	0.141583 
1685.785184  	0.142902 
1687.714000  	0.143605 
1689.642816  	0.142586 
1691.571632  	0.141031 
1693.500448  	0.139433 
1695.429264  	0.135544 
1697.358080  	0.131994 
1699.286896  	0.128890 
1701.215712  	0.124248 
1703.144528  	0.121887 
1705.073344  	0.117528 
1707.002160  	0.112967 
1708.930976  	0.109501 
1710.859792  	0.105148 
1712.788608  	0.100181 
1714.717424  	0.094713 
1716.646240  	0.088479 
1718.575056  	0.082417 
1720.503872  	0.078227 
1722.432688  	0.074048 
1724.361504  	0.068775 
1726.290320  	0.063999 
1728.219136  	0.059312 
1730.147952  	0.054783 
1732.076768  	0.050162 
1734.005584  	0.044477 
1735.934400  	0.039858 
1737.863216  	0.037054 
1739.792032  	0.032478 
1741.720848  	0.029660 
1743.649664  	0.026949 
1745.578480  	0.024175 
1747.507296  	0.021415 
1749.436112  	0.019699 
1751.364928  	0.018517 
1753.293744  	0.017683 
1755.222560  	0.016196 
1757.151376  	0.015127 
1759.080192  	0.014177 
1761.009008  	0.013514 
1762.937824  	0.013127 
1764.866640  	0.013123 
1766.795456  	0.012495 
1768.724272  	0.012047 
1770.653088  	0.010358 
1772.581904  	0.009524 
1774.510720  	0.010387 
1776.439536  	0.011053 
1778.368352  	0.010936 
1780.297168  	0.010874 
1782.225984  	0.010663 
1784.154800  	0.010571 
1786.083616  	0.010416 
1788.012432  	0.010386 
1789.941248  	0.009772 
1791.870064  	0.009295 
1793.798880  	0.009297 
1795.727696  	0.009854 
1797.656512  	0.009486 
1799.585328  	0.009026 
1801.514144  	0.008925 
1803.442960  	0.008903 
1805.371776  	0.008528 
1807.300592  	0.008601 
1809.229408  	0.008203 
1811.158224  	0.008163 
1813.087040  	0.008100 
1815.015856  	0.007980 
1816.944672  	0.007828 
1818.873488  	0.008191 
1820.802304  	0.008333 
1822.731120  	0.008437 
1824.659936  	0.007930 
1826.588752  	0.008043 
1828.517568  	0.007744 
1830.446384  	0.007992 
1832.375200  	0.008368 
1834.304016  	0.008374 
1836.232832  	0.008226 
1838.161648  	0.008522 
1840.090464  	0.008388 
1842.019280  	0.008124 
1843.948096  	0.007313 
1845.876912  	0.007959 
1847.805728  	0.008527 
1849.734544  	0.008684 
1851.663360  	0.008354 
1853.592176  	0.008334 
1855.520992  	0.008256 
1857.449808  	0.008790 
1859.378624  	0.008635 
1861.307440  	0.008428 
1863.236256  	0.008274 
1865.165072  	0.008180 
1867.093888  	0.007906 
1869.022704  	0.008354 
1870.951520  	0.008410 
1872.880336  	0.008602 
1874.809152  	0.008341 
1876.737968  	0.008344 
1878.666784  	0.008142 
1880.595600  	0.008212 
1882.524416  	0.008201 
1884.453232  	0.008330 
1886.382048  	0.008132 
1888.310864  	0.008132 
1890.239680  	0.008350 
1892.168496  	0.008621 
1894.097312  	0.007968 
1896.026128  	0.008126 
1897.954944  	0.008090 
1899.883760  	0.008143 
1901.812576  	0.008070 
1903.741392  	0.008400 
1905.670208  	0.008220 
1907.599024  	0.008216 
1909.527840  	0.008037 
1911.456656  	0.008203 
1913.385472  	0.008487 
1915.314288  	0.009075 
1917.243104  	0.008982 
1919.171920  	0.008716 
1921.100736  	0.008542 
1923.029552  	0.009097 
1924.958368  	0.008299 
1926.887184  	0.008470 
1928.816000  	0.008611 
1930.744816  	0.008461 
1932.673632  	0.007918 
1934.602448  	0.008082 
1936.531264  	0.008365 
1938.460080  	0.008844 
1940.388896  	0.008818 
1942.317712  	0.009012 
1944.246528  	0.008869 
1946.175344  	0.008911 
1948.104160  	0.008457 
1950.032976  	0.008454 
1951.961792  	0.008507 
1953.890608  	0.008733 
1955.819424  	0.008100 
1957.748240  	0.008713 
1959.677056  	0.008891 
1961.605872  	0.008760 
1963.534688  	0.008869 
1965.463504  	0.009693 
1967.392320  	0.008664 
1969.321136  	0.008197 
1971.249952  	0.008799 
1973.178768  	0.009799 
1975.107584  	0.008721 
1977.036400  	0.009202 
1978.965216  	0.011382 
1980.894032  	0.011546 
1982.822848  	0.009282 
1984.751664  	0.009630 
1986.680480  	0.009429 
1988.609296  	0.008974 
1990.538112  	0.008968 
1992.466928  	0.009546 
1994.395744  	0.009065 
1996.324560  	0.009721 
1998.253376  	0.009307 
2000.182192  	0.008898 
2002.111008  	0.008695 
2004.039824  	0.008667 
2005.968640  	0.008494 
2007.897456  	0.009841 
2009.826272  	0.009667 
2011.755088  	0.008490 
2013.683904  	0.008640 
2015.612720  	0.010236 
2017.541536  	0.010101 
2019.470352  	0.010354 
2021.399168  	0.009786 
2023.327984  	0.010041 
2025.256800  	0.009754 
2027.185616  	0.009009 
2029.114432  	0.007540 
2031.043248  	0.009711 
2032.972064  	0.010804 
2034.900880  	0.010779 
2036.829696  	0.009721 
2038.758512  	0.008557 
2040.687328  	0.008321 
2042.616144  	0.008874 
2044.544960  	0.008847 
2046.473776  	0.009452 
2048.402592  	0.008926 
2050.331408  	0.009858 
2052.260224  	0.009551 
2054.189040  	0.009005 
2056.117856  	0.008249 
2058.046672  	0.008127 
2059.975488  	0.007668 
2061.904304  	0.007717 
2063.833120  	0.008649 
2065.761936  	0.009326 
2067.690752  	0.009002 
2069.619568  	0.008905 
2071.548384  	0.007926 
2073.477200  	0.007790 
2075.406016  	0.008411 
2077.334832  	0.008821 
2079.263648  	0.007827 
2081.192464  	0.007673 
2083.121280  	0.008399 
2085.050096  	0.008697 
2086.978912  	0.008674 
2088.907728  	0.008651 
2090.836544  	0.007626 
2092.765360  	0.007084 
2094.694176  	0.007376 
2096.622992  	0.007693 
2098.551808  	0.007358 
2100.480624  	0.007537 
2102.409440  	0.007636 
2104.338256  	0.008190 
2106.267072  	0.008408 
2108.195888  	0.008331 
2110.124704  	0.008307 
2112.053520  	0.008883 
2113.982336  	0.008590 
2115.911152  	0.008443 
2117.839968  	0.008188 
2119.768784  	0.007911 
2121.697600  	0.007448 
2123.626416  	0.007121 
2125.555232  	0.006784 
2127.484048  	0.006954 
2129.412864  	0.007149 
2131.341680  	0.006419 
2133.270496  	0.006325 
2135.199312  	0.007003 
2137.128128  	0.007022 
2139.056944  	0.007167 
2140.985760  	0.006651 
2142.914576  	0.007178 
2144.843392  	0.006717 
2146.772208  	0.007094 
2148.701024  	0.007835 
2150.629840  	0.008189 
2152.558656  	0.007329 
2154.487472  	0.006130 
2156.416288  	0.004232 
2158.345104  	0.007111 
2160.273920  	0.011202 
2162.202736  	0.011474 
2164.131552  	0.010269 
2166.060368  	0.011242 
2167.989184  	0.009977 
2169.918000  	0.007674 
2171.846816  	0.007046 
2173.775632  	0.007613 
2175.704448  	0.009249 
2177.633264  	0.010461 
2179.562080  	0.010050 
2181.490896  	0.008926 
2183.419712  	0.008285 
2185.348528  	0.009206 
2187.277344  	0.008694 
2189.206160  	0.008767 
2191.134976  	0.009526 
2193.063792  	0.010507 
2194.992608  	0.010632 
2196.921424  	0.009496 
2198.850240  	0.009183 
2200.779056  	0.009145 
2202.707872  	0.009187 
2204.636688  	0.009353 
2206.565504  	0.009360 
2208.494320  	0.009783 
2210.423136  	0.008346 
2212.351952  	0.008026 
2214.280768  	0.008399 
2216.209584  	0.008774 
2218.138400  	0.008537 
2220.067216  	0.008508 
2221.996032  	0.008617 
2223.924848  	0.008222 
2225.853664  	0.008126 
2227.782480  	0.008523 
2229.711296  	0.008961 
2231.640112  	0.009334 
2233.568928  	0.008996 
2235.497744  	0.009045 
2237.426560  	0.008263 
2239.355376  	0.007806 
2241.284192  	0.008079 
2243.213008  	0.008443 
2245.141824  	0.008489 
2247.070640  	0.007993 
2248.999456  	0.007891 
2250.928272  	0.008247 
2252.857088  	0.007904 
2254.785904  	0.007703 
2256.714720  	0.008008 
2258.643536  	0.008507 
2260.572352  	0.008408 
2262.501168  	0.008227 
2264.429984  	0.008112 
2266.358800  	0.008373 
2268.287616  	0.008492 
2270.216432  	0.008618 
2272.145248  	0.008243 
2274.074064  	0.008273 
2276.002880  	0.008411 
2277.931696  	0.008829 
2279.860512  	0.009186 
2281.789328  	0.009409 
2283.718144  	0.009415 
2285.646960  	0.009429 
2287.575776  	0.009401 
2289.504592  	0.009254 
2291.433408  	0.009020 
2293.362224  	0.009030 
2295.291040  	0.008949 
2297.219856  	0.009288 
2299.148672  	0.009452 
2301.077488  	0.009444 
2303.006304  	0.009389 
2304.935120  	0.009307 
2306.863936  	0.009157 
2308.792752  	0.009043 
2310.721568  	0.009159 
2312.650384  	0.008917 
2314.579200  	0.008277 
2316.508016  	0.008173 
2318.436832  	0.007770 
2320.365648  	0.007416 
2322.294464  	0.007133 
2324.223280  	0.006215 
2326.152096  	0.004460 
2328.080912  	0.003383 
2330.009728  	0.002796 
2331.938544  	0.002171 
2333.867360  	0.000922 
2335.796176  	0.000101 
2337.724992  	-0.000167 
2339.653808  	-0.000243 
2341.582624  	-0.000226 
2343.511440  	0.000690 
2345.440256  	0.002464 
2347.369072  	0.004837 
2349.297888  	0.005311 
2351.226704  	0.003566 
2353.155520  	0.001355 
2355.084336  	-0.000747 
2357.013152  	-0.002345 
2358.941968  	-0.003140 
2360.870784  	-0.003971 
2362.799600  	-0.003319 
2364.728416  	-0.002410 
2366.657232  	-0.001350 
2368.586048  	-0.000064 
2370.514864  	0.001745 
2372.443680  	0.003573 
2374.372496  	0.005596 
2376.301312  	0.007293 
2378.230128  	0.008462 
2380.158944  	0.008901 
2382.087760  	0.009100 
2384.016576  	0.009174 
2385.945392  	0.009271 
2387.874208  	0.009110 
2389.803024  	0.008893 
2391.731840  	0.008741 
2393.660656  	0.008761 
2395.589472  	0.009026 
2397.518288  	0.009190 
2399.447104  	0.009127 
2401.375920  	0.008940 
2403.304736  	0.008992 
2405.233552  	0.009066 
2407.162368  	0.009174 
2409.091184  	0.009243 
2411.020000  	0.009289 
2412.948816  	0.009394 
2414.877632  	0.009371 
2416.806448  	0.009461 
2418.735264  	0.009534 
2420.664080  	0.009490 
2422.592896  	0.009311 
2424.521712  	0.009358 
2426.450528  	0.009571 
2428.379344  	0.009652 
2430.308160  	0.009741 
2432.236976  	0.009914 
2434.165792  	0.010030 
2436.094608  	0.010337 
2438.023424  	0.010559 
2439.952240  	0.010547 
2441.881056  	0.010565 
2443.809872  	0.010677 
2445.738688  	0.010560 
2447.667504  	0.010627 
2449.596320  	0.010680 
2451.525136  	0.010656 
2453.453952  	0.010669 
2455.382768  	0.010944 
2457.311584  	0.011020 
2459.240400  	0.010851 
2461.169216  	0.010645 
2463.098032  	0.010619 
2465.026848  	0.010609 
2466.955664  	0.010597 
2468.884480  	0.010491 
2470.813296  	0.010670 
2472.742112  	0.010712 
2474.670928  	0.010717 
2476.599744  	0.010685 
2478.528560  	0.010767 
2480.457376  	0.010910 
2482.386192  	0.011025 
2484.315008  	0.011101 
2486.243824  	0.011176 
2488.172640  	0.010938 
2490.101456  	0.011020 
2492.030272  	0.011367 
2493.959088  	0.011332 
2495.887904  	0.011099 
2497.816720  	0.011234 
2499.745536  	0.011410 
2501.674352  	0.011449 
2503.603168  	0.011488 
2505.531984  	0.011745 
2507.460800  	0.011845 
2509.389616  	0.011830 
2511.318432  	0.011641 
2513.247248  	0.011698 
2515.176064  	0.011853 
2517.104880  	0.012214 
2519.033696  	0.012299 
2520.962512  	0.012233 
2522.891328  	0.012356 
2524.820144  	0.012397 
2526.748960  	0.012290 
2528.677776  	0.012384 
2530.606592  	0.012456 
2532.535408  	0.012452 
2534.464224  	0.012593 
2536.393040  	0.012623 
2538.321856  	0.012426 
2540.250672  	0.012652 
2542.179488  	0.012667 
2544.108304  	0.012789 
2546.037120  	0.012735 
2547.965936  	0.012858 
2549.894752  	0.013042 
2551.823568  	0.013225 
2553.752384  	0.013282 
2555.681200  	0.013196 
2557.610016  	0.013206 
2559.538832  	0.013257 
2561.467648  	0.013350 
2563.396464  	0.013654 
2565.325280  	0.013787 
2567.254096  	0.013725 
2569.182912  	0.013679 
2571.111728  	0.013685 
2573.040544  	0.013591 
2574.969360  	0.013558 
2576.898176  	0.013676 
2578.826992  	0.014028 
2580.755808  	0.014063 
2582.684624  	0.013967 
2584.613440  	0.013923 
2586.542256  	0.014258 
2588.471072  	0.014424 
2590.399888  	0.014390 
2592.328704  	0.014431 
2594.257520  	0.014490 
2596.186336  	0.014821 
2598.115152  	0.015079 
2600.043968  	0.014926 
2601.972784  	0.014820 
2603.901600  	0.014880 
2605.830416  	0.015095 
2607.759232  	0.014994 
2609.688048  	0.015122 
2611.616864  	0.015272 
2613.545680  	0.015346 
2615.474496  	0.015411 
2617.403312  	0.015526 
2619.332128  	0.015684 
2621.260944  	0.015721 
2623.189760  	0.015615 
2625.118576  	0.015709 
2627.047392  	0.015857 
2628.976208  	0.016103 
2630.905024  	0.016288 
2632.833840  	0.016435 
2634.762656  	0.016429 
2636.691472  	0.016332 
2638.620288  	0.016326 
2640.549104  	0.016387 
2642.477920  	0.016540 
2644.406736  	0.016619 
2646.335552  	0.016836 
2648.264368  	0.017041 
2650.193184  	0.017115 
2652.122000  	0.017306 
2654.050816  	0.017568 
2655.979632  	0.017518 
2657.908448  	0.017435 
2659.837264  	0.017498 
2661.766080  	0.017499 
2663.694896  	0.017533 
2665.623712  	0.017519 
2667.552528  	0.017527 
2669.481344  	0.017671 
2671.410160  	0.017909 
2673.338976  	0.018090 
2675.267792  	0.018222 
2677.196608  	0.018231 
2679.125424  	0.018258 
2681.054240  	0.018362 
2682.983056  	0.018495 
2684.911872  	0.018659 
2686.840688  	0.018774 
2688.769504  	0.018834 
2690.698320  	0.018837 
2692.627136  	0.018899 
2694.555952  	0.018976 
2696.484768  	0.018968 
2698.413584  	0.019128 
2700.342400  	0.019219 
2702.271216  	0.019342 
2704.200032  	0.019525 
2706.128848  	0.019671 
2708.057664  	0.019753 
2709.986480  	0.019771 
2711.915296  	0.019772 
2713.844112  	0.019867 
2715.772928  	0.020149 
2717.701744  	0.020404 
2719.630560  	0.020323 
2721.559376  	0.020342 
2723.488192  	0.020522 
2725.417008  	0.020716 
2727.345824  	0.020853 
2729.274640  	0.020918 
2731.203456  	0.020889 
2733.132272  	0.020983 
2735.061088  	0.021196 
2736.989904  	0.021360 
2738.918720  	0.021420 
2740.847536  	0.021392 
2742.776352  	0.021464 
2744.705168  	0.021593 
2746.633984  	0.021636 
2748.562800  	0.021798 
2750.491616  	0.021907 
2752.420432  	0.021936 
2754.349248  	0.022015 
2756.278064  	0.022138 
2758.206880  	0.022084 
2760.135696  	0.022292 
2762.064512  	0.022431 
2763.993328  	0.022418 
2765.922144  	0.022417 
2767.850960  	0.022448 
2769.779776  	0.022561 
2771.708592  	0.022750 
2773.637408  	0.022795 
2775.566224  	0.022816 
2777.495040  	0.022802 
2779.423856  	0.022854 
2781.352672  	0.023088 
2783.281488  	0.023327 
2785.210304  	0.023360 
2787.139120  	0.023522 
2789.067936  	0.023661 
2790.996752  	0.023690 
2792.925568  	0.023785 
2794.854384  	0.023913 
2796.783200  	0.023951 
2798.712016  	0.023911 
2800.640832  	0.023972 
2802.569648  	0.024181 
2804.498464  	0.024316 
2806.427280  	0.024411 
2808.356096  	0.024645 
2810.284912  	0.024878 
2812.213728  	0.024817 
2814.142544  	0.024814 
2816.071360  	0.024961 
2818.000176  	0.024966 
2819.928992  	0.024951 
2821.857808  	0.025033 
2823.786624  	0.025080 
2825.715440  	0.025076 
2827.644256  	0.025053 
2829.573072  	0.025119 
2831.501888  	0.025115 
2833.430704  	0.025146 
2835.359520  	0.025153 
2837.288336  	0.025151 
2839.217152  	0.025179 
2841.145968  	0.025202 
2843.074784  	0.025196 
2845.003600  	0.025293 
2846.932416  	0.025259 
2848.861232  	0.025202 
2850.790048  	0.025321 
2852.718864  	0.025500 
2854.647680  	0.025669 
2856.576496  	0.025896 
2858.505312  	0.026061 
2860.434128  	0.026164 
2862.362944  	0.026373 
2864.291760  	0.026543 
2866.220576  	0.026560 
2868.149392  	0.026871 
2870.078208  	0.027352 
2872.007024  	0.027680 
2873.935840  	0.027921 
2875.864656  	0.028363 
2877.793472  	0.028969 
2879.722288  	0.029514 
2881.651104  	0.029807 
2883.579920  	0.030028 
2885.508736  	0.030279 
2887.437552  	0.030420 
2889.366368  	0.030502 
2891.295184  	0.030679 
2893.224000  	0.030852 
2895.152816  	0.031045 
2897.081632  	0.030926 
2899.010448  	0.030899 
2900.939264  	0.031246 
2902.868080  	0.031301 
2904.796896  	0.031383 
2906.725712  	0.031590 
2908.654528  	0.031573 
2910.583344  	0.031626 
2912.512160  	0.032024 
2914.440976  	0.032390 
2916.369792  	0.032528 
2918.298608  	0.032802 
2920.227424  	0.033359 
2922.156240  	0.033967 
2924.085056  	0.034351 
2926.013872  	0.034827 
2927.942688  	0.035443 
2929.871504  	0.036052 
2931.800320  	0.036459 
2933.729136  	0.036804 
2935.657952  	0.037153 
2937.586768  	0.037583 
2939.515584  	0.037797 
2941.444400  	0.038045 
2943.373216  	0.038298 
2945.302032  	0.038366 
2947.230848  	0.038452 
2949.159664  	0.038492 
2951.088480  	0.038449 
2953.017296  	0.038567 
2954.946112  	0.038539 
2956.874928  	0.038297 
2958.803744  	0.038046 
2960.732560  	0.037981 
2962.661376  	0.038140 
2964.590192  	0.038137 
2966.519008  	0.038088 
2968.447824  	0.037955 
2970.376640  	0.037900 
2972.305456  	0.037683 
2974.234272  	0.037387 
2976.163088  	0.037170 
2978.091904  	0.037025 
2980.020720  	0.036927 
2981.949536  	0.036857 
2983.878352  	0.036652 
2985.807168  	0.036469 
2987.735984  	0.036525 
2989.664800  	0.036555 
2991.593616  	0.036529 
2993.522432  	0.036410 
2995.451248  	0.036333 
2997.380064  	0.036468 
2999.308880  	0.036359 
3001.237696  	0.036300 
3003.166512  	0.036360 
3005.095328  	0.036377 
3007.024144  	0.036370 
3008.952960  	0.036399 
3010.881776  	0.036607 
3012.810592  	0.036906 
3014.739408  	0.036964 
3016.668224  	0.037062 
3018.597040  	0.037151 
3020.525856  	0.037077 
3022.454672  	0.037164 
3024.383488  	0.037323 
3026.312304  	0.037435 
3028.241120  	0.037454 
3030.169936  	0.037442 
3032.098752  	0.037696 
3034.027568  	0.037715 
3035.956384  	0.037604 
3037.885200  	0.037805 
3039.814016  	0.038059 
3041.742832  	0.038183 
3043.671648  	0.038410 
3045.600464  	0.038599 
3047.529280  	0.038720 
3049.458096  	0.038877 
3051.386912  	0.038868 
3053.315728  	0.039008 
3055.244544  	0.039425 
3057.173360  	0.039881 
3059.102176  	0.040094 
3061.030992  	0.040307 
3062.959808  	0.040596 
3064.888624  	0.040826 
3066.817440  	0.041042 
3068.746256  	0.041196 
3070.675072  	0.041385 
3072.603888  	0.041827 
3074.532704  	0.042279 
3076.461520  	0.042659 
3078.390336  	0.042850 
3080.319152  	0.043060 
3082.247968  	0.043453 
3084.176784  	0.043943 
3086.105600  	0.044057 
3088.034416  	0.044158 
3089.963232  	0.044526 
3091.892048  	0.044754 
3093.820864  	0.044975 
3095.749680  	0.045297 
3097.678496  	0.045407 
3099.607312  	0.045592 
3101.536128  	0.045812 
3103.464944  	0.046093 
3105.393760  	0.046452 
3107.322576  	0.046726 
3109.251392  	0.046918 
3111.180208  	0.047145 
3113.109024  	0.047280 
3115.037840  	0.047445 
3116.966656  	0.047684 
3118.895472  	0.047824 
3120.824288  	0.048021 
3122.753104  	0.048336 
3124.681920  	0.048460 
3126.610736  	0.048500 
3128.539552  	0.048722 
3130.468368  	0.048922 
3132.397184  	0.048986 
3134.326000  	0.049056 
3136.254816  	0.049166 
3138.183632  	0.049255 
3140.112448  	0.049398 
3142.041264  	0.049487 
3143.970080  	0.049547 
3145.898896  	0.049731 
3147.827712  	0.049976 
3149.756528  	0.050352 
3151.685344  	0.050719 
3153.614160  	0.050994 
3155.542976  	0.051116 
3157.471792  	0.051177 
3159.400608  	0.051617 
3161.329424  	0.051926 
3163.258240  	0.052080 
3165.187056  	0.052361 
3167.115872  	0.052476 
3169.044688  	0.052494 
3170.973504  	0.052527 
3172.902320  	0.052689 
3174.831136  	0.052994 
3176.759952  	0.053248 
3178.688768  	0.053405 
3180.617584  	0.053348 
3182.546400  	0.053185 
3184.475216  	0.053465 
3186.404032  	0.053719 
3188.332848  	0.053823 
3190.261664  	0.054083 
3192.190480  	0.054035 
3194.119296  	0.053760 
3196.048112  	0.053690 
3197.976928  	0.053891 
3199.905744  	0.054119 
3201.834560  	0.054076 
3203.763376  	0.054103 
3205.692192  	0.054092 
3207.621008  	0.054106 
3209.549824  	0.053945 
3211.478640  	0.053827 
3213.407456  	0.053704 
3215.336272  	0.053656 
3217.265088  	0.053411 
3219.193904  	0.053102 
3221.122720  	0.052995 
3223.051536  	0.053004 
3224.980352  	0.052794 
3226.909168  	0.052450 
3228.837984  	0.052246 
3230.766800  	0.052271 
3232.695616  	0.052375 
3234.624432  	0.052324 
3236.553248  	0.052161 
3238.482064  	0.051998 
3240.410880  	0.051946 
3242.339696  	0.052015 
3244.268512  	0.051884 
3246.197328  	0.051828 
3248.126144  	0.051869 
3250.054960  	0.051825 
3251.983776  	0.051758 
3253.912592  	0.051800 
3255.841408  	0.051903 
3257.770224  	0.051954 
3259.699040  	0.051918 
3261.627856  	0.051904 
3263.556672  	0.051946 
3265.485488  	0.052041 
3267.414304  	0.052144 
3269.343120  	0.052362 
3271.271936  	0.052622 
3273.200752  	0.052767 
3275.129568  	0.052733 
3277.058384  	0.052602 
3278.987200  	0.052635 
3280.916016  	0.052533 
3282.844832  	0.052644 
3284.773648  	0.052799 
3286.702464  	0.052880 
3288.631280  	0.053060 
3290.560096  	0.053189 
3292.488912  	0.053409 
3294.417728  	0.053528 
3296.346544  	0.053437 
3298.275360  	0.053453 
3300.204176  	0.053744 
3302.132992  	0.054024 
3304.061808  	0.054249 
3305.990624  	0.054531 
3307.919440  	0.054564 
3309.848256  	0.054592 
3311.777072  	0.054723 
3313.705888  	0.054927 
3315.634704  	0.055174 
3317.563520  	0.055527 
3319.492336  	0.055535 
3321.421152  	0.055425 
3323.349968  	0.055444 
3325.278784  	0.055673 
3327.207600  	0.055798 
3329.136416  	0.055656 
3331.065232  	0.055599 
3332.994048  	0.055813 
3334.922864  	0.055919 
3336.851680  	0.055769 
3338.780496  	0.055768 
3340.709312  	0.055630 
3342.638128  	0.055340 
3344.566944  	0.055230 
3346.495760  	0.055328 
3348.424576  	0.055259 
3350.353392  	0.054902 
3352.282208  	0.054744 
3354.211024  	0.054666 
3356.139840  	0.054533 
3358.068656  	0.054301 
3359.997472  	0.054199 
3361.926288  	0.053909 
3363.855104  	0.053593 
3365.783920  	0.053417 
3367.712736  	0.053187 
3369.641552  	0.052888 
3371.570368  	0.052518 
3373.499184  	0.052245 
3375.428000  	0.052007 
3377.356816  	0.051792 
3379.285632  	0.051644 
3381.214448  	0.051527 
3383.143264  	0.051399 
3385.072080  	0.051208 
3387.000896  	0.050813 
3388.929712  	0.050502 
3390.858528  	0.050444 
3392.787344  	0.050178 
3394.716160  	0.049816 
3396.644976  	0.049608 
3398.573792  	0.049257 
3400.502608  	0.048719 
3402.431424  	0.048494 
3404.360240  	0.048273 
3406.289056  	0.047908 
3408.217872  	0.047585 
3410.146688  	0.047316 
3412.075504  	0.047434 
3414.004320  	0.047266 
3415.933136  	0.046727 
3417.861952  	0.046289 
3419.790768  	0.046167 
3421.719584  	0.046077 
3423.648400  	0.045608 
3425.577216  	0.045314 
3427.506032  	0.045065 
3429.434848  	0.044465 
3431.363664  	0.044129 
3433.292480  	0.044017 
3435.221296  	0.043858 
3437.150112  	0.043577 
3439.078928  	0.043322 
3441.007744  	0.043037 
3442.936560  	0.042725 
3444.865376  	0.042300 
3446.794192  	0.041664 
3448.723008  	0.041467 
3450.651824  	0.041024 
3452.580640  	0.040493 
3454.509456  	0.040184 
3456.438272  	0.040004 
3458.367088  	0.039812 
3460.295904  	0.039525 
3462.224720  	0.038988 
3464.153536  	0.038554 
3466.082352  	0.038299 
3468.011168  	0.037914 
3469.939984  	0.037500 
3471.868800  	0.037091 
3473.797616  	0.036763 
3475.726432  	0.036336 
3477.655248  	0.035867 
3479.584064  	0.035464 
3481.512880  	0.035076 
3483.441696  	0.034610 
3485.370512  	0.034024 
3487.299328  	0.033834 
3489.228144  	0.033616 
3491.156960  	0.033008 
3493.085776  	0.032505 
3495.014592  	0.032222 
3496.943408  	0.032012 
3498.872224  	0.031573 
3500.801040  	0.031218 
3502.729856  	0.030893 
3504.658672  	0.030353 
3506.587488  	0.029664 
3508.516304  	0.029521 
3510.445120  	0.029558 
3512.373936  	0.029243 
3514.302752  	0.028821 
3516.231568  	0.028433 
3518.160384  	0.028035 
3520.089200  	0.027812 
3522.018016  	0.027614 
3523.946832  	0.027435 
3525.875648  	0.027106 
3527.804464  	0.026547 
3529.733280  	0.026198 
3531.662096  	0.026070 
3533.590912  	0.025820 
3535.519728  	0.025477 
3537.448544  	0.025160 
3539.377360  	0.024729 
3541.306176  	0.024230 
3543.234992  	0.023839 
3545.163808  	0.024059 
3547.092624  	0.023891 
3549.021440  	0.023117 
3550.950256  	0.022567 
3552.879072  	0.022606 
3554.807888  	0.022688 
3556.736704  	0.022391 
3558.665520  	0.022090 
3560.594336  	0.021860 
3562.523152  	0.021452 
3564.451968  	0.020948 
3566.380784  	0.020690 
3568.309600  	0.020742 
3570.238416  	0.020286 
3572.167232  	0.019457 
3574.096048  	0.019053 
3576.024864  	0.018683 
3577.953680  	0.018333 
3579.882496  	0.018122 
3581.811312  	0.017868 
3583.740128  	0.017471 
3585.668944  	0.017008 
3587.597760  	0.017033 
3589.526576  	0.016865 
3591.455392  	0.015981 
3593.384208  	0.015506 
3595.313024  	0.015204 
3597.241840  	0.014697 
3599.170656  	0.013825 
3601.099472  	0.013568 
3603.028288  	0.013580 
3604.957104  	0.013054 
3606.885920  	0.012274 
3608.814736  	0.012079 
3610.743552  	0.011591 
3612.672368  	0.010887 
3614.601184  	0.010786 
3616.530000  	0.010330 
3618.458816  	0.009590 
3620.387632  	0.009434 
3622.316448  	0.009361 
3624.245264  	0.008905 
3626.174080  	0.007753 
3628.102896  	0.006554 
3630.031712  	0.007445 
3631.960528  	0.007651 
3633.889344  	0.007115 
3635.818160  	0.006702 
3637.746976  	0.006412 
3639.675792  	0.006572 
3641.604608  	0.006457 
3643.533424  	0.005793 
3645.462240  	0.004430 
3647.391056  	0.002943 
3649.319872  	0.002337 
3651.248688  	0.003595 
3653.177504  	0.004122 
3655.106320  	0.003041 
3657.035136  	0.003125 
3658.963952  	0.003576 
3660.892768  	0.003167 
3662.821584  	0.002732 
3664.750400  	0.002495 
3666.679216  	0.001764 
3668.608032  	0.000511 
3670.536848  	0.000497 
3672.465664  	0.000729 
3674.394480  	-0.000812 
3676.323296  	0.000081 
3678.252112  	0.001215 
3680.180928  	0.001370 
3682.109744  	0.001379 
3684.038560  	0.001102 
3685.967376  	0.000017 
3687.896192  	-0.001711 
3689.825008  	-0.001476 
3691.753824  	-0.000251 
3693.682640  	0.000394 
3695.611456  	0.000261 
3697.540272  	0.000346 
3699.469088  	-0.000062 
3701.397904  	-0.000380 
3703.326720  	-0.000042 
3705.255536  	-0.000043 
3707.184352  	-0.000771 
3709.113168  	-0.001915 
3711.041984  	-0.002134 
3712.970800  	-0.000759 
3714.899616  	0.000178 
3716.828432  	0.000065 
3718.757248  	-0.000357 
3720.686064  	-0.000821 
3722.614880  	-0.000718 
3724.543696  	-0.000327 
3726.472512  	-0.000164 
3728.401328  	-0.000568 
3730.330144  	-0.001954 
3732.258960  	-0.002834 
3734.187776  	-0.002152 
3736.116592  	-0.000734 
3738.045408  	-0.000845 
3739.974224  	-0.001317 
3741.903040  	-0.001708 
3743.831856  	-0.001746 
3745.760672  	-0.000496 
3747.689488  	-0.002080 
3749.618304  	-0.003921 
3751.547120  	-0.003138 
3753.475936  	-0.000661 
3755.404752  	-0.000402 
3757.333568  	-0.000969 
3759.262384  	-0.000952 
3761.191200  	-0.000093 
3763.120016  	-0.000041 
3765.048832  	-0.000440 
3766.977648  	-0.000594 
3768.906464  	-0.001151 
3770.835280  	-0.000539 
3772.764096  	0.000066 
3774.692912  	0.000032 
3776.621728  	-0.000407 
3778.550544  	-0.001003 
3780.479360  	-0.000590 
3782.408176  	-0.000370 
3784.336992  	-0.000580 
3786.265808  	-0.000243 
3788.194624  	0.000005 
3790.123440  	-0.000167 
3792.052256  	-0.000245 
3793.981072  	-0.000704 
3795.909888  	-0.001463 
3797.838704  	-0.001252 
3799.767520  	-0.002157 
3801.696336  	-0.002344 
3803.625152  	-0.001078 
3805.553968  	-0.001604 
3807.482784  	-0.001335 
3809.411600  	-0.000236 
3811.340416  	0.000026 
3813.269232  	-0.000628 
3815.198048  	-0.001944 
3817.126864  	-0.001461 
3819.055680  	-0.002061 
3820.984496  	-0.002506 
3822.913312  	-0.000594 
3824.842128  	-0.000705 
3826.770944  	-0.000992 
3828.699760  	-0.000675 
3830.628576  	-0.001205 
3832.557392  	-0.001325 
3834.486208  	-0.001718 
3836.415024  	-0.002426 
3838.343840  	-0.002198 
3840.272656  	-0.001452 
3842.201472  	-0.001110 
3844.130288  	-0.000783 
3846.059104  	-0.000131 
3847.987920  	-0.000263 
3849.916736  	-0.001166 
3851.845552  	-0.002968 
3853.774368  	-0.002591 
3855.703184  	-0.000857 
3857.632000  	-0.000611 
3859.560816  	-0.000770 
3861.489632  	-0.001144 
3863.418448  	-0.001374 
3865.347264  	-0.000992 
3867.276080  	-0.000895 
3869.204896  	-0.001501 
3871.133712  	-0.000468 
3873.062528  	-0.000791 
3874.991344  	-0.000490 
3876.920160  	-0.000271 
3878.848976  	-0.000799 
3880.777792  	-0.000491 
3882.706608  	-0.000095 
3884.635424  	-0.000665 
3886.564240  	-0.000139 
3888.493056  	-0.000128 
3890.421872  	-0.000707 
3892.350688  	-0.000285 
3894.279504  	0.000025 
3896.208320  	-0.000241 
3898.137136  	-0.000477 
3900.065952  	-0.000493 
3901.994768  	-0.000596 
3903.923584  	-0.000271 
3905.852400  	0.000333 
3907.781216  	0.000147 
3909.710032  	-0.000124 
3911.638848  	0.000036 
3913.567664  	0.000127 
3915.496480  	0.000153 
3917.425296  	0.000542 
3919.354112  	0.000475 
3921.282928  	0.000191 
3923.211744  	0.000032 
3925.140560  	0.000291 
3927.069376  	0.000024 
3928.998192  	-0.000277 
3930.927008  	0.000256 
3932.855824  	0.000865 
3934.784640  	0.000542 
3936.713456  	0.000208 
3938.642272  	0.000142 
3940.571088  	-0.000121 
3942.499904  	0.000082 
3944.428720  	0.000419 
3946.357536  	0.000276 
3948.286352  	0.000322 
3950.215168  	0.000136 
3952.143984  	-0.000207 
3954.072800  	-0.000280 
3956.001616  	-0.000084 
3957.930432  	0.000157 
3959.859248  	0.000335 
3961.788064  	0.000432 
3963.716880  	0.000387 
3965.645696  	0.000177 
3967.574512  	0.000303 
3969.503328  	0.000442 
3971.432144  	0.000217 
3973.360960  	0.000113 
3975.289776  	0.000270 
3977.218592  	0.000378 
3979.147408  	0.000384 
3981.076224  	0.000193 
3983.005040  	-0.000082 
3984.933856  	-0.000071 
3986.862672  	-0.000027 
3988.791488  	-0.000095 
3990.720304  	0.000032 
3992.649120  	0.000350 
3994.577936  	0.000393 
3996.506752  	0.000252 
3998.435568  	0.000194 
4000.364384  	0.000042 