##TITLE=No Description
##DATA TYPE=INFRARED SPECTRUM
##XUNITS=1/CM
##YUNITS=Abs
399.264912  	0.584392 
401.193728  	0.570685 
403.122544  	0.573370 
405.051360  	0.554850 
406.980176  	0.548124 
408.908992  	0.550370 
410.837808  	0.555258 
412.766624  	0.551781 
414.695440  	0.546499 
416.624256  	0.532061 
418.553072  	0.520519 
420.481888  	0.524737 
422.410704  	0.535331 
424.339520  	0.530135 
426.268336  	0.526730 
428.197152  	0.523966 
430.125968  	0.526591 
432.054784  	0.521244 
433.983600  	0.514834 
435.912416  	0.505607 
437.841232  	0.503069 
439.770048  	0.499244 
441.698864  	0.499339 
443.627680  	0.496489 
445.556496  	0.497500 
447.485312  	0.500793 
449.414128  	0.502047 
451.342944  	0.494108 
453.271760  	0.491996 
455.200576  	0.486787 
457.129392  	0.485225 
459.058208  	0.483709 
460.987024  	0.486344 
462.915840  	0.487100 
464.844656  	0.489839 
466.773472  	0.491239 
468.702288  	0.498230 
470.631104  	0.495180 
472.559920  	0.490437 
474.488736  	0.481483 
476.417552  	0.481074 
478.346368  	0.480165 
480.275184  	0.480860 
482.204000  	0.483986 
484.132816  	0.484591 
486.061632  	0.480624 
487.990448  	0.482450 
489.919264  	0.480515 
491.848080  	0.481039 
493.776896  	0.475101 
495.705712  	0.472456 
497.634528  	0.471706 
499.563344  	0.471120 
501.492160  	0.469104 
503.420976  	0.470192 
505.349792  	0.471412 
507.278608  	0.473448 
509.207424  	0.470767 
511.136240  	0.471051 
513.065056  	0.469659 
514.993872  	0.470838 
516.922688  	0.471882 
518.851504  	0.470333 
520.780320  	0.466626 
522.709136  	0.469015 
524.637952  	0.467550 
526.566768  	0.465519 
528.495584  	0.463381 
530.424400  	0.461400 
532.353216  	0.456930 
534.282032  	0.453180 
536.210848  	0.449834 
538.139664  	0.447704 
540.068480  	0.443640 
541.997296  	0.439510 
543.926112  	0.435521 
545.854928  	0.434581 
547.783744  	0.431453 
549.712560  	0.427870 
551.641376  	0.423386 
553.570192  	0.419498 
555.499008  	0.416519 
557.427824  	0.414286 
559.356640  	0.410072 
561.285456  	0.407288 
563.214272  	0.404560 
565.143088  	0.401258 
567.071904  	0.396403 
569.000720  	0.393996 
570.929536  	0.390868 
572.858352  	0.387719 
574.787168  	0.384999 
576.715984  	0.381996 
578.644800  	0.378553 
580.573616  	0.376027 
582.502432  	0.372835 
584.431248  	0.370091 
586.360064  	0.366988 
588.288880  	0.364732 
590.217696  	0.362440 
592.146512  	0.361300 
594.075328  	0.359426 
596.004144  	0.357195 
597.932960  	0.355457 
599.861776  	0.355287 
601.790592  	0.354063 
603.719408  	0.352546 
605.648224  	0.351090 
607.577040  	0.350366 
609.505856  	0.349882 
611.434672  	0.349260 
613.363488  	0.346886 
615.292304  	0.344879 
617.221120  	0.342415 
619.149936  	0.340939 
621.078752  	0.339135 
623.007568  	0.336886 
624.936384  	0.334496 
626.865200  	0.333797 
628.794016  	0.332866 
630.722832  	0.331622 
632.651648  	0.330432 
634.580464  	0.330086 
636.509280  	0.330097 
638.438096  	0.329339 
640.366912  	0.328074 
642.295728  	0.326905 
644.224544  	0.324520 
646.153360  	0.321411 
648.082176  	0.318188 
650.010992  	0.315410 
651.939808  	0.312077 
653.868624  	0.309122 
655.797440  	0.304900 
657.726256  	0.301625 
659.655072  	0.298775 
661.583888  	0.295861 
663.512704  	0.292815 
665.441520  	0.290121 
667.370336  	0.287355 
669.299152  	0.283978 
671.227968  	0.281442 
673.156784  	0.278931 
675.085600  	0.276406 
677.014416  	0.274907 
678.943232  	0.273630 
680.872048  	0.271512 
682.800864  	0.269711 
684.729680  	0.268624 
686.658496  	0.266659 
688.587312  	0.264710 
690.516128  	0.262624 
692.444944  	0.261406 
694.373760  	0.260318 
696.302576  	0.258361 
698.231392  	0.255625 
700.160208  	0.253202 
702.089024  	0.250761 
704.017840  	0.249322 
705.946656  	0.246938 
707.875472  	0.244648 
709.804288  	0.242353 
711.733104  	0.240765 
713.661920  	0.239569 
715.590736  	0.238779 
717.519552  	0.238523 
719.448368  	0.238987 
721.377184  	0.239312 
723.306000  	0.239522 
725.234816  	0.239445 
727.163632  	0.238377 
729.092448  	0.235896 
731.021264  	0.233066 
732.950080  	0.230514 
734.878896  	0.227955 
736.807712  	0.225660 
738.736528  	0.223985 
740.665344  	0.222591 
742.594160  	0.221234 
744.522976  	0.219454 
746.451792  	0.217960 
748.380608  	0.217180 
750.309424  	0.216629 
752.238240  	0.215541 
754.167056  	0.215367 
756.095872  	0.214834 
758.024688  	0.213641 
759.953504  	0.213032 
761.882320  	0.212960 
763.811136  	0.212734 
765.739952  	0.212166 
767.668768  	0.211408 
769.597584  	0.210082 
771.526400  	0.209483 
773.455216  	0.210711 
775.384032  	0.212655 
777.312848  	0.215337 
779.241664  	0.218185 
781.170480  	0.218990 
783.099296  	0.216770 
785.028112  	0.212222 
786.956928  	0.206558 
788.885744  	0.201983 
790.814560  	0.198580 
792.743376  	0.196463 
794.672192  	0.194907 
796.601008  	0.193964 
798.529824  	0.192142 
800.458640  	0.189386 
802.387456  	0.186854 
804.316272  	0.185442 
806.245088  	0.184403 
808.173904  	0.183803 
810.102720  	0.183599 
812.031536  	0.183501 
813.960352  	0.183045 
815.889168  	0.182564 
817.817984  	0.182397 
819.746800  	0.182007 
821.675616  	0.181593 
823.604432  	0.181134 
825.533248  	0.180138 
827.462064  	0.179181 
829.390880  	0.178137 
831.319696  	0.176794 
833.248512  	0.175371 
835.177328  	0.173890 
837.106144  	0.171822 
839.034960  	0.169308 
840.963776  	0.166629 
842.892592  	0.164309 
844.821408  	0.161564 
846.750224  	0.158910 
848.679040  	0.156955 
850.607856  	0.155108 
852.536672  	0.153384 
854.465488  	0.151634 
856.394304  	0.150168 
858.323120  	0.148748 
860.251936  	0.147563 
862.180752  	0.146091 
864.109568  	0.144286 
866.038384  	0.142649 
867.967200  	0.141333 
869.896016  	0.140291 
871.824832  	0.139259 
873.753648  	0.138436 
875.682464  	0.138062 
877.611280  	0.138226 
879.540096  	0.138633 
881.468912  	0.139266 
883.397728  	0.139434 
885.326544  	0.139409 
887.255360  	0.139190 
889.184176  	0.138808 
891.112992  	0.138010 
893.041808  	0.136663 
894.970624  	0.134595 
896.899440  	0.131997 
898.828256  	0.129092 
900.757072  	0.126146 
902.685888  	0.123384 
904.614704  	0.121618 
906.543520  	0.120860 
908.472336  	0.121341 
910.401152  	0.122859 
912.329968  	0.125015 
914.258784  	0.127466 
916.187600  	0.129687 
918.116416  	0.131321 
920.045232  	0.132105 
921.974048  	0.131826 
923.902864  	0.131044 
925.831680  	0.129914 
927.760496  	0.128883 
929.689312  	0.128021 
931.618128  	0.127752 
933.546944  	0.127919 
935.475760  	0.128116 
937.404576  	0.128486 
939.333392  	0.129262 
941.262208  	0.130368 
943.191024  	0.132223 
945.119840  	0.135111 
947.048656  	0.138623 
948.977472  	0.143113 
950.906288  	0.148391 
952.835104  	0.154113 
954.763920  	0.159745 
956.692736  	0.165066 
958.621552  	0.169714 
960.550368  	0.172792 
962.479184  	0.174269 
964.408000  	0.173390 
966.336816  	0.170658 
968.265632  	0.165633 
970.194448  	0.159127 
972.123264  	0.151650 
974.052080  	0.143679 
975.980896  	0.135852 
977.909712  	0.128569 
979.838528  	0.122423 
981.767344  	0.117157 
983.696160  	0.113474 
985.624976  	0.111868 
987.553792  	0.112130 
989.482608  	0.113938 
991.411424  	0.117444 
993.340240  	0.122468 
995.269056  	0.128637 
997.197872  	0.134845 
999.126688  	0.140846 
1001.055504  	0.147194 
1002.984320  	0.153174 
1004.913136  	0.158686 
1006.841952  	0.163573 
1008.770768  	0.167882 
1010.699584  	0.171010 
1012.628400  	0.173109 
1014.557216  	0.174430 
1016.486032  	0.175261 
1018.414848  	0.175658 
1020.343664  	0.175950 
1022.272480  	0.176019 
1024.201296  	0.176056 
1026.130112  	0.175940 
1028.058928  	0.176241 
1029.987744  	0.176989 
1031.916560  	0.178596 
1033.845376  	0.180834 
1035.774192  	0.183559 
1037.703008  	0.186723 
1039.631824  	0.191429 
1041.560640  	0.197255 
1043.489456  	0.204930 
1045.418272  	0.214184 
1047.347088  	0.225434 
1049.275904  	0.237205 
1051.204720  	0.249260 
1053.133536  	0.259501 
1055.062352  	0.267716 
1056.991168  	0.272942 
1058.919984  	0.275692 
1060.848800  	0.276046 
1062.777616  	0.275305 
1064.706432  	0.272481 
1066.635248  	0.268944 
1068.564064  	0.264299 
1070.492880  	0.258890 
1072.421696  	0.253026 
1074.350512  	0.247782 
1076.279328  	0.243126 
1078.208144  	0.239320 
1080.136960  	0.235946 
1082.065776  	0.232932 
1083.994592  	0.229652 
1085.923408  	0.226502 
1087.852224  	0.222825 
1089.781040  	0.219050 
1091.709856  	0.213909 
1093.638672  	0.207973 
1095.567488  	0.200452 
1097.496304  	0.192689 
1099.425120  	0.184560 
1101.353936  	0.176310 
1103.282752  	0.167748 
1105.211568  	0.158893 
1107.140384  	0.150095 
1109.069200  	0.141834 
1110.998016  	0.134103 
1112.926832  	0.126892 
1114.855648  	0.120019 
1116.784464  	0.113204 
1118.713280  	0.107199 
1120.642096  	0.101842 
1122.570912  	0.096465 
1124.499728  	0.091454 
1126.428544  	0.086699 
1128.357360  	0.082055 
1130.286176  	0.077809 
1132.214992  	0.074260 
1134.143808  	0.071094 
1136.072624  	0.068099 
1138.001440  	0.065264 
1139.930256  	0.062690 
1141.859072  	0.060458 
1143.787888  	0.058201 
1145.716704  	0.056516 
1147.645520  	0.055368 
1149.574336  	0.054401 
1151.503152  	0.053638 
1153.431968  	0.053496 
1155.360784  	0.053550 
1157.289600  	0.053952 
1159.218416  	0.054557 
1161.147232  	0.055608 
1163.076048  	0.056558 
1165.004864  	0.057929 
1166.933680  	0.059298 
1168.862496  	0.061039 
1170.791312  	0.063160 
1172.720128  	0.065104 
1174.648944  	0.067117 
1176.577760  	0.069430 
1178.506576  	0.071528 
1180.435392  	0.073598 
1182.364208  	0.075816 
1184.293024  	0.078297 
1186.221840  	0.080931 
1188.150656  	0.083945 
1190.079472  	0.087256 
1192.008288  	0.090834 
1193.937104  	0.095053 
1195.865920  	0.099904 
1197.794736  	0.104829 
1199.723552  	0.110199 
1201.652368  	0.115988 
1203.581184  	0.121984 
1205.510000  	0.127654 
1207.438816  	0.133184 
1209.367632  	0.138624 
1211.296448  	0.143762 
1213.225264  	0.148357 
1215.154080  	0.152030 
1217.082896  	0.155142 
1219.011712  	0.157656 
1220.940528  	0.159952 
1222.869344  	0.161628 
1224.798160  	0.162575 
1226.726976  	0.163059 
1228.655792  	0.163237 
1230.584608  	0.162712 
1232.513424  	0.161696 
1234.442240  	0.159590 
1236.371056  	0.156682 
1238.299872  	0.153279 
1240.228688  	0.149429 
1242.157504  	0.144823 
1244.086320  	0.139569 
1246.015136  	0.133775 
1247.943952  	0.128134 
1249.872768  	0.122520 
1251.801584  	0.116997 
1253.730400  	0.111567 
1255.659216  	0.106263 
1257.588032  	0.101121 
1259.516848  	0.096260 
1261.445664  	0.091913 
1263.374480  	0.087967 
1265.303296  	0.084257 
1267.232112  	0.081367 
1269.160928  	0.079370 
1271.089744  	0.077949 
1273.018560  	0.077366 
1274.947376  	0.077479 
1276.876192  	0.077556 
1278.805008  	0.077017 
1280.733824  	0.075617 
1282.662640  	0.073008 
1284.591456  	0.069657 
1286.520272  	0.066370 
1288.449088  	0.063540 
1290.377904  	0.061145 
1292.306720  	0.059348 
1294.235536  	0.057252 
1296.164352  	0.054403 
1298.093168  	0.051209 
1300.021984  	0.048158 
1301.950800  	0.045383 
1303.879616  	0.043211 
1305.808432  	0.041552 
1307.737248  	0.040330 
1309.666064  	0.039201 
1311.594880  	0.038766 
1313.523696  	0.038751 
1315.452512  	0.038833 
1317.381328  	0.039190 
1319.310144  	0.039834 
1321.238960  	0.040449 
1323.167776  	0.041222 
1325.096592  	0.041694 
1327.025408  	0.041730 
1328.954224  	0.041312 
1330.883040  	0.040577 
1332.811856  	0.039606 
1334.740672  	0.038861 
1336.669488  	0.038156 
1338.598304  	0.037862 
1340.527120  	0.037426 
1342.455936  	0.036712 
1344.384752  	0.036587 
1346.313568  	0.037165 
1348.242384  	0.038221 
1350.171200  	0.039760 
1352.100016  	0.041439 
1354.028832  	0.043176 
1355.957648  	0.045000 
1357.886464  	0.046805 
1359.815280  	0.048347 
1361.744096  	0.050040 
1363.672912  	0.051537 
1365.601728  	0.051981 
1367.530544  	0.052316 
1369.459360  	0.052582 
1371.388176  	0.052087 
1373.316992  	0.051274 
1375.245808  	0.050131 
1377.174624  	0.048778 
1379.103440  	0.047296 
1381.032256  	0.045824 
1382.961072  	0.044543 
1384.889888  	0.043723 
1386.818704  	0.043215 
1388.747520  	0.042268 
1390.676336  	0.041086 
1392.605152  	0.040155 
1394.533968  	0.039814 
1396.462784  	0.040131 
1398.391600  	0.040289 
1400.320416  	0.040799 
1402.249232  	0.041228 
1404.178048  	0.042390 
1406.106864  	0.043722 
1408.035680  	0.045002 
1409.964496  	0.046458 
1411.893312  	0.048163 
1413.822128  	0.049567 
1415.750944  	0.050959 
1417.679760  	0.051487 
1419.608576  	0.051325 
1421.537392  	0.050707 
1423.466208  	0.050057 
1425.395024  	0.048993 
1427.323840  	0.047409 
1429.252656  	0.045824 
1431.181472  	0.044837 
1433.110288  	0.044394 
1435.039104  	0.044071 
1436.967920  	0.044481 
1438.896736  	0.044960 
1440.825552  	0.045125 
1442.754368  	0.045468 
1444.683184  	0.045360 
1446.612000  	0.045294 
1448.540816  	0.045489 
1450.469632  	0.045704 
1452.398448  	0.045810 
1454.327264  	0.045619 
1456.256080  	0.045202 
1458.184896  	0.045886 
1460.113712  	0.046353 
1462.042528  	0.046442 
1463.971344  	0.046521 
1465.900160  	0.048215 
1467.828976  	0.050000 
1469.757792  	0.051772 
1471.686608  	0.054024 
1473.615424  	0.058258 
1475.544240  	0.061119 
1477.473056  	0.063056 
1479.401872  	0.063582 
1481.330688  	0.063742 
1483.259504  	0.063322 
1485.188320  	0.062331 
1487.117136  	0.060514 
1489.045952  	0.058793 
1490.974768  	0.056388 
1492.903584  	0.053618 
1494.832400  	0.050573 
1496.761216  	0.047501 
1498.690032  	0.045259 
1500.618848  	0.044052 
1502.547664  	0.042348 
1504.476480  	0.039824 
1506.405296  	0.038530 
1508.334112  	0.040297 
1510.262928  	0.039600 
1512.191744  	0.038346 
1514.120560  	0.037237 
1516.049376  	0.036951 
1517.978192  	0.037074 
1519.907008  	0.037176 
1521.835824  	0.038805 
1523.764640  	0.041406 
1525.693456  	0.043891 
1527.622272  	0.046155 
1529.551088  	0.047219 
1531.479904  	0.047484 
1533.408720  	0.047301 
1535.337536  	0.047111 
1537.266352  	0.044842 
1539.195168  	0.040955 
1541.123984  	0.039673 
1543.052800  	0.040810 
1544.981616  	0.040698 
1546.910432  	0.039721 
1548.839248  	0.039107 
1550.768064  	0.039304 
1552.696880  	0.038554 
1554.625696  	0.038573 
1556.554512  	0.037544 
1558.483328  	0.036851 
1560.412144  	0.041941 
1562.340960  	0.044417 
1564.269776  	0.045911 
1566.198592  	0.048691 
1568.127408  	0.050669 
1570.056224  	0.054711 
1571.985040  	0.058357 
1573.913856  	0.059481 
1575.842672  	0.060114 
1577.771488  	0.062663 
1579.700304  	0.063193 
1581.629120  	0.063268 
1583.557936  	0.063621 
1585.486752  	0.065099 
1587.415568  	0.067347 
1589.344384  	0.070772 
1591.273200  	0.074570 
1593.202016  	0.078958 
1595.130832  	0.083159 
1597.059648  	0.087297 
1598.988464  	0.090379 
1600.917280  	0.092719 
1602.846096  	0.093990 
1604.774912  	0.094748 
1606.703728  	0.094377 
1608.632544  	0.094031 
1610.561360  	0.093492 
1612.490176  	0.093379 
1614.418992  	0.092689 
1616.347808  	0.093531 
1618.276624  	0.097272 
1620.205440  	0.100820 
1622.134256  	0.103967 
1624.063072  	0.110056 
1625.991888  	0.115404 
1627.920704  	0.121243 
1629.849520  	0.127937 
1631.778336  	0.133375 
1633.707152  	0.136584 
1635.635968  	0.141726 
1637.564784  	0.148717 
1639.493600  	0.152702 
1641.422416  	0.155391 
1643.351232  	0.156971 
1645.280048  	0.156876 
1647.208864  	0.158014 
1649.137680  	0.158988 
1651.066496  	0.157414 
1652.995312  	0.155031 
1654.924128  	0.157383 
1656.852944  	0.156767 
1658.781760  	0.155632 
1660.710576  	0.154059 
1662.639392  	0.152755 
1664.568208  	0.152442 
1666.497024  	0.151722 
1668.425840  	0.150082 
1670.354656  	0.149465 
1672.283472  	0.149408 
1674.212288  	0.148947 
1676.141104  	0.149749 
1678.069920  	0.150745 
1679.998736  	0.151312 
1681.927552  	0.150887 
1683.856368  	0.149894 
1685.785184  	0.152058 
1687.714000  	0.151895 
1689.642816  	0.150688 
1691.571632  	0.148667 
1693.500448  	0.145994 
1695.429264  	0.142004 
1697.358080  	0.138863 
1699.286896  	0.134951 
1701.215712  	0.131075 
1703.144528  	0.127971 
1705.073344  	0.123315 
1707.002160  	0.118595 
1708.930976  	0.114337 
1710.859792  	0.109518 
1712.788608  	0.104346 
1714.717424  	0.098712 
1716.646240  	0.092460 
1718.575056  	0.086613 
1720.503872  	0.081743 
1722.432688  	0.077128 
1724.361504  	0.071824 
1726.290320  	0.066621 
1728.219136  	0.061470 
1730.147952  	0.056741 
1732.076768  	0.051917 
1734.005584  	0.046933 
1735.934400  	0.042317 
1737.863216  	0.038820 
1739.792032  	0.034283 
1741.720848  	0.031228 
1743.649664  	0.028438 
1745.578480  	0.025583 
1747.507296  	0.022726 
1749.436112  	0.020936 
1751.364928  	0.019810 
1753.293744  	0.018611 
1755.222560  	0.016985 
1757.151376  	0.016346 
1759.080192  	0.015294 
1761.009008  	0.014612 
1762.937824  	0.014274 
1764.866640  	0.013911 
1766.795456  	0.013213 
1768.724272  	0.012968 
1770.653088  	0.011337 
1772.581904  	0.011064 
1774.510720  	0.011778 
1776.439536  	0.012000 
1778.368352  	0.011634 
1780.297168  	0.011681 
1782.225984  	0.011427 
1784.154800  	0.011276 
1786.083616  	0.011222 
1788.012432  	0.011059 
1789.941248  	0.010494 
1791.870064  	0.010229 
1793.798880  	0.010147 
1795.727696  	0.010494 
1797.656512  	0.010000 
1799.585328  	0.009622 
1801.514144  	0.009784 
1803.442960  	0.009675 
1805.371776  	0.009241 
1807.300592  	0.009284 
1809.229408  	0.008913 
1811.158224  	0.008947 
1813.087040  	0.008931 
1815.015856  	0.008732 
1816.944672  	0.008531 
1818.873488  	0.008773 
1820.802304  	0.008847 
1822.731120  	0.008763 
1824.659936  	0.008586 
1826.588752  	0.008692 
1828.517568  	0.008008 
1830.446384  	0.008751 
1832.375200  	0.009125 
1834.304016  	0.008968 
1836.232832  	0.008710 
1838.161648  	0.008865 
1840.090464  	0.008663 
1842.019280  	0.008284 
1843.948096  	0.008177 
1845.876912  	0.009002 
1847.805728  	0.009114 
1849.734544  	0.009077 
1851.663360  	0.008639 
1853.592176  	0.008567 
1855.520992  	0.008356 
1857.449808  	0.008777 
1859.378624  	0.008858 
1861.307440  	0.008806 
1863.236256  	0.008435 
1865.165072  	0.008274 
1867.093888  	0.008005 
1869.022704  	0.008672 
1870.951520  	0.008634 
1872.880336  	0.008601 
1874.809152  	0.008408 
1876.737968  	0.008472 
1878.666784  	0.008310 
1880.595600  	0.008507 
1882.524416  	0.008157 
1884.453232  	0.007942 
1886.382048  	0.007770 
1888.310864  	0.008138 
1890.239680  	0.008453 
1892.168496  	0.008685 
1894.097312  	0.008444 
1896.026128  	0.008642 
1897.954944  	0.008076 
1899.883760  	0.007894 
1901.812576  	0.007849 
1903.741392  	0.008171 
1905.670208  	0.007991 
1907.599024  	0.008007 
1909.527840  	0.007998 
1911.456656  	0.008467 
1913.385472  	0.008459 
1915.314288  	0.008676 
1917.243104  	0.008779 
1919.171920  	0.008897 
1921.100736  	0.008830 
1923.029552  	0.009184 
1924.958368  	0.008394 
1926.887184  	0.008409 
1928.816000  	0.008176 
1930.744816  	0.007944 
1932.673632  	0.007631 
1934.602448  	0.008115 
1936.531264  	0.008322 
1938.460080  	0.008383 
1940.388896  	0.008094 
1942.317712  	0.008008 
1944.246528  	0.007671 
1946.175344  	0.008327 
1948.104160  	0.007849 
1950.032976  	0.007688 
1951.961792  	0.007811 
1953.890608  	0.008057 
1955.819424  	0.007978 
1957.748240  	0.008492 
1959.677056  	0.008508 
1961.605872  	0.008824 
1963.534688  	0.008376 
1965.463504  	0.009745 
1967.392320  	0.008967 
1969.321136  	0.007652 
1971.249952  	0.007820 
1973.178768  	0.009071 
1975.107584  	0.008260 
1977.036400  	0.008695 
1978.965216  	0.010590 
1980.894032  	0.010851 
1982.822848  	0.008973 
1984.751664  	0.008779 
1986.680480  	0.009079 
1988.609296  	0.009841 
1990.538112  	0.009191 
1992.466928  	0.009570 
1994.395744  	0.009536 
1996.324560  	0.009120 
1998.253376  	0.008488 
2000.182192  	0.008908 
2002.111008  	0.008895 
2004.039824  	0.009165 
2005.968640  	0.008826 
2007.897456  	0.009332 
2009.826272  	0.008856 
2011.755088  	0.008432 
2013.683904  	0.008751 
2015.612720  	0.009460 
2017.541536  	0.008501 
2019.470352  	0.008038 
2021.399168  	0.007558 
2023.327984  	0.008736 
2025.256800  	0.008617 
2027.185616  	0.007881 
2029.114432  	0.007826 
2031.043248  	0.009513 
2032.972064  	0.009702 
2034.900880  	0.009999 
2036.829696  	0.009855 
2038.758512  	0.009516 
2040.687328  	0.009042 
2042.616144  	0.009204 
2044.544960  	0.009038 
2046.473776  	0.009439 
2048.402592  	0.009280 
2050.331408  	0.009824 
2052.260224  	0.009432 
2054.189040  	0.008845 
2056.117856  	0.007931 
2058.046672  	0.008068 
2059.975488  	0.007986 
2061.904304  	0.008010 
2063.833120  	0.008867 
2065.761936  	0.009768 
2067.690752  	0.009341 
2069.619568  	0.008699 
2071.548384  	0.007718 
2073.477200  	0.007739 
2075.406016  	0.008888 
2077.334832  	0.009890 
2079.263648  	0.009044 
2081.192464  	0.008711 
2083.121280  	0.009107 
2085.050096  	0.008999 
2086.978912  	0.008669 
2088.907728  	0.008812 
2090.836544  	0.008121 
2092.765360  	0.008019 
2094.694176  	0.008301 
2096.622992  	0.008389 
2098.551808  	0.008335 
2100.480624  	0.008264 
2102.409440  	0.007707 
2104.338256  	0.008190 
2106.267072  	0.008359 
2108.195888  	0.008581 
2110.124704  	0.009286 
2112.053520  	0.009872 
2113.982336  	0.009341 
2115.911152  	0.009051 
2117.839968  	0.008276 
2119.768784  	0.007983 
2121.697600  	0.007866 
2123.626416  	0.007678 
2125.555232  	0.007675 
2127.484048  	0.007865 
2129.412864  	0.007590 
2131.341680  	0.007310 
2133.270496  	0.007732 
2135.199312  	0.008490 
2137.128128  	0.008506 
2139.056944  	0.008211 
2140.985760  	0.007431 
2142.914576  	0.008375 
2144.843392  	0.008607 
2146.772208  	0.009208 
2148.701024  	0.009336 
2150.629840  	0.008790 
2152.558656  	0.008050 
2154.487472  	0.007598 
2156.416288  	0.006054 
2158.345104  	0.008331 
2160.273920  	0.012448 
2162.202736  	0.012531 
2164.131552  	0.010669 
2166.060368  	0.012007 
2167.989184  	0.010601 
2169.918000  	0.009509 
2171.846816  	0.009734 
2173.775632  	0.010421 
2175.704448  	0.011241 
2177.633264  	0.011386 
2179.562080  	0.010750 
2181.490896  	0.010487 
2183.419712  	0.010093 
2185.348528  	0.010017 
2187.277344  	0.009566 
2189.206160  	0.009738 
2191.134976  	0.010640 
2193.063792  	0.011731 
2194.992608  	0.011370 
2196.921424  	0.010058 
2198.850240  	0.010181 
2200.779056  	0.010140 
2202.707872  	0.010028 
2204.636688  	0.010724 
2206.565504  	0.010771 
2208.494320  	0.010965 
2210.423136  	0.009718 
2212.351952  	0.009534 
2214.280768  	0.009604 
2216.209584  	0.009661 
2218.138400  	0.009954 
2220.067216  	0.009874 
2221.996032  	0.009624 
2223.924848  	0.009286 
2225.853664  	0.009491 
2227.782480  	0.010244 
2229.711296  	0.010497 
2231.640112  	0.010440 
2233.568928  	0.009885 
2235.497744  	0.009752 
2237.426560  	0.009319 
2239.355376  	0.009312 
2241.284192  	0.009241 
2243.213008  	0.009364 
2245.141824  	0.009603 
2247.070640  	0.009264 
2248.999456  	0.009088 
2250.928272  	0.009565 
2252.857088  	0.009181 
2254.785904  	0.008873 
2256.714720  	0.009523 
2258.643536  	0.009976 
2260.572352  	0.009650 
2262.501168  	0.009690 
2264.429984  	0.009795 
2266.358800  	0.010372 
2268.287616  	0.010349 
2270.216432  	0.010404 
2272.145248  	0.010182 
2274.074064  	0.010070 
2276.002880  	0.010009 
2277.931696  	0.010388 
2279.860512  	0.010786 
2281.789328  	0.010976 
2283.718144  	0.010886 
2285.646960  	0.011289 
2287.575776  	0.011363 
2289.504592  	0.010846 
2291.433408  	0.010379 
2293.362224  	0.010706 
2295.291040  	0.011156 
2297.219856  	0.011768 
2299.148672  	0.011958 
2301.077488  	0.011909 
2303.006304  	0.012178 
2304.935120  	0.012482 
2306.863936  	0.012598 
2308.792752  	0.012810 
2310.721568  	0.013074 
2312.650384  	0.013188 
2314.579200  	0.012890 
2316.508016  	0.012726 
2318.436832  	0.012613 
2320.365648  	0.012952 
2322.294464  	0.013151 
2324.223280  	0.012396 
2326.152096  	0.010878 
2328.080912  	0.010101 
2330.009728  	0.009970 
2331.938544  	0.009578 
2333.867360  	0.008358 
2335.796176  	0.007509 
2337.724992  	0.007126 
2339.653808  	0.007380 
2341.582624  	0.007873 
2343.511440  	0.009048 
2345.440256  	0.010401 
2347.369072  	0.011152 
2349.297888  	0.010760 
2351.226704  	0.009693 
2353.155520  	0.008702 
2355.084336  	0.008013 
2357.013152  	0.007605 
2358.941968  	0.007372 
2360.870784  	0.007002 
2362.799600  	0.007349 
2364.728416  	0.007950 
2366.657232  	0.008510 
2368.586048  	0.009016 
2370.514864  	0.009914 
2372.443680  	0.010565 
2374.372496  	0.011443 
2376.301312  	0.012193 
2378.230128  	0.012459 
2380.158944  	0.012206 
2382.087760  	0.011752 
2384.016576  	0.011345 
2385.945392  	0.010960 
2387.874208  	0.010331 
2389.803024  	0.010093 
2391.731840  	0.009977 
2393.660656  	0.009999 
2395.589472  	0.010112 
2397.518288  	0.010324 
2399.447104  	0.010251 
2401.375920  	0.010100 
2403.304736  	0.010232 
2405.233552  	0.010394 
2407.162368  	0.010622 
2409.091184  	0.010650 
2411.020000  	0.010587 
2412.948816  	0.010793 
2414.877632  	0.010809 
2416.806448  	0.010775 
2418.735264  	0.010937 
2420.664080  	0.010835 
2422.592896  	0.010494 
2424.521712  	0.010555 
2426.450528  	0.010750 
2428.379344  	0.010694 
2430.308160  	0.010698 
2432.236976  	0.010900 
2434.165792  	0.011218 
2436.094608  	0.011771 
2438.023424  	0.011850 
2439.952240  	0.011768 
2441.881056  	0.011818 
2443.809872  	0.011883 
2445.738688  	0.011883 
2447.667504  	0.011874 
2449.596320  	0.011652 
2451.525136  	0.011580 
2453.453952  	0.011738 
2455.382768  	0.012176 
2457.311584  	0.012368 
2459.240400  	0.012199 
2461.169216  	0.011935 
2463.098032  	0.011832 
2465.026848  	0.011919 
2466.955664  	0.011982 
2468.884480  	0.011831 
2470.813296  	0.011929 
2472.742112  	0.011930 
2474.670928  	0.011856 
2476.599744  	0.012092 
2478.528560  	0.012463 
2480.457376  	0.012585 
2482.386192  	0.012428 
2484.315008  	0.012397 
2486.243824  	0.012581 
2488.172640  	0.012683 
2490.101456  	0.012847 
2492.030272  	0.013007 
2493.959088  	0.012726 
2495.887904  	0.012472 
2497.816720  	0.012831 
2499.745536  	0.012893 
2501.674352  	0.012855 
2503.603168  	0.012981 
2505.531984  	0.013058 
2507.460800  	0.013166 
2509.389616  	0.013243 
2511.318432  	0.013013 
2513.247248  	0.012882 
2515.176064  	0.012977 
2517.104880  	0.013462 
2519.033696  	0.013626 
2520.962512  	0.013591 
2522.891328  	0.013767 
2524.820144  	0.013797 
2526.748960  	0.013755 
2528.677776  	0.014033 
2530.606592  	0.014131 
2532.535408  	0.014009 
2534.464224  	0.013989 
2536.393040  	0.013947 
2538.321856  	0.013845 
2540.250672  	0.014037 
2542.179488  	0.014247 
2544.108304  	0.014464 
2546.037120  	0.014383 
2547.965936  	0.014598 
2549.894752  	0.014822 
2551.823568  	0.014894 
2553.752384  	0.014828 
2555.681200  	0.014841 
2557.610016  	0.014846 
2559.538832  	0.014949 
2561.467648  	0.015035 
2563.396464  	0.015222 
2565.325280  	0.015528 
2567.254096  	0.015533 
2569.182912  	0.015237 
2571.111728  	0.015121 
2573.040544  	0.015062 
2574.969360  	0.015167 
2576.898176  	0.015445 
2578.826992  	0.015643 
2580.755808  	0.015581 
2582.684624  	0.015528 
2584.613440  	0.015480 
2586.542256  	0.015689 
2588.471072  	0.015851 
2590.399888  	0.015868 
2592.328704  	0.015993 
2594.257520  	0.016257 
2596.186336  	0.016540 
2598.115152  	0.016595 
2600.043968  	0.016360 
2601.972784  	0.016363 
2603.901600  	0.016693 
2605.830416  	0.016823 
2607.759232  	0.016663 
2609.688048  	0.016795 
2611.616864  	0.017011 
2613.545680  	0.017054 
2615.474496  	0.017002 
2617.403312  	0.017039 
2619.332128  	0.017310 
2621.260944  	0.017529 
2623.189760  	0.017434 
2625.118576  	0.017430 
2627.047392  	0.017499 
2628.976208  	0.017762 
2630.905024  	0.017882 
2632.833840  	0.017985 
2634.762656  	0.018147 
2636.691472  	0.018114 
2638.620288  	0.018129 
2640.549104  	0.018284 
2642.477920  	0.018464 
2644.406736  	0.018500 
2646.335552  	0.018607 
2648.264368  	0.018817 
2650.193184  	0.018971 
2652.122000  	0.019080 
2654.050816  	0.019113 
2655.979632  	0.019051 
2657.908448  	0.019065 
2659.837264  	0.019081 
2661.766080  	0.019072 
2663.694896  	0.019125 
2665.623712  	0.019148 
2667.552528  	0.019208 
2669.481344  	0.019321 
2671.410160  	0.019451 
2673.338976  	0.019561 
2675.267792  	0.019720 
2677.196608  	0.019922 
2679.125424  	0.020143 
2681.054240  	0.020143 
2682.983056  	0.020131 
2684.911872  	0.020216 
2686.840688  	0.020369 
2688.769504  	0.020488 
2690.698320  	0.020596 
2692.627136  	0.020664 
2694.555952  	0.020679 
2696.484768  	0.020658 
2698.413584  	0.020825 
2700.342400  	0.020853 
2702.271216  	0.021030 
2704.200032  	0.021282 
2706.128848  	0.021387 
2708.057664  	0.021455 
2709.986480  	0.021441 
2711.915296  	0.021443 
2713.844112  	0.021643 
2715.772928  	0.021869 
2717.701744  	0.022075 
2719.630560  	0.022041 
2721.559376  	0.022073 
2723.488192  	0.022249 
2725.417008  	0.022502 
2727.345824  	0.022580 
2729.274640  	0.022538 
2731.203456  	0.022568 
2733.132272  	0.022676 
2735.061088  	0.022882 
2736.989904  	0.023027 
2738.918720  	0.023067 
2740.847536  	0.023093 
2742.776352  	0.023179 
2744.705168  	0.023363 
2746.633984  	0.023495 
2748.562800  	0.023502 
2750.491616  	0.023548 
2752.420432  	0.023554 
2754.349248  	0.023652 
2756.278064  	0.023858 
2758.206880  	0.023848 
2760.135696  	0.023903 
2762.064512  	0.023970 
2763.993328  	0.024006 
2765.922144  	0.023982 
2767.850960  	0.024040 
2769.779776  	0.024131 
2771.708592  	0.024317 
2773.637408  	0.024421 
2775.566224  	0.024399 
2777.495040  	0.024398 
2779.423856  	0.024489 
2781.352672  	0.024633 
2783.281488  	0.024760 
2785.210304  	0.024833 
2787.139120  	0.025035 
2789.067936  	0.025224 
2790.996752  	0.025287 
2792.925568  	0.025430 
2794.854384  	0.025532 
2796.783200  	0.025537 
2798.712016  	0.025511 
2800.640832  	0.025548 
2802.569648  	0.025818 
2804.498464  	0.026007 
2806.427280  	0.025991 
2808.356096  	0.026067 
2810.284912  	0.026268 
2812.213728  	0.026280 
2814.142544  	0.026326 
2816.071360  	0.026349 
2818.000176  	0.026255 
2819.928992  	0.026298 
2821.857808  	0.026503 
2823.786624  	0.026567 
2825.715440  	0.026582 
2827.644256  	0.026455 
2829.573072  	0.026492 
2831.501888  	0.026524 
2833.430704  	0.026495 
2835.359520  	0.026522 
2837.288336  	0.026472 
2839.217152  	0.026357 
2841.145968  	0.026277 
2843.074784  	0.026218 
2845.003600  	0.026287 
2846.932416  	0.026416 
2848.861232  	0.026374 
2850.790048  	0.026409 
2852.718864  	0.026506 
2854.647680  	0.026469 
2856.576496  	0.026685 
2858.505312  	0.026930 
2860.434128  	0.027089 
2862.362944  	0.027080 
2864.291760  	0.027045 
2866.220576  	0.026986 
2868.149392  	0.027317 
2870.078208  	0.027739 
2872.007024  	0.028038 
2873.935840  	0.028384 
2875.864656  	0.028747 
2877.793472  	0.029163 
2879.722288  	0.029493 
2881.651104  	0.029744 
2883.579920  	0.029994 
2885.508736  	0.030248 
2887.437552  	0.030473 
2889.366368  	0.030662 
2891.295184  	0.030752 
2893.224000  	0.030721 
2895.152816  	0.030847 
2897.081632  	0.030750 
2899.010448  	0.030654 
2900.939264  	0.030825 
2902.868080  	0.030977 
2904.796896  	0.031129 
2906.725712  	0.031321 
2908.654528  	0.031453 
2910.583344  	0.031642 
2912.512160  	0.031973 
2914.440976  	0.032331 
2916.369792  	0.032714 
2918.298608  	0.033085 
2920.227424  	0.033614 
2922.156240  	0.034157 
2924.085056  	0.034547 
2926.013872  	0.035179 
2927.942688  	0.035888 
2929.871504  	0.036441 
2931.800320  	0.036894 
2933.729136  	0.037364 
2935.657952  	0.037662 
2937.586768  	0.037920 
2939.515584  	0.038188 
2941.444400  	0.038532 
2943.373216  	0.038784 
2945.302032  	0.038864 
2947.230848  	0.038894 
2949.159664  	0.038817 
2951.088480  	0.038809 
2953.017296  	0.038836 
2954.946112  	0.038694 
2956.874928  	0.038420 
2958.803744  	0.038094 
2960.732560  	0.037890 
2962.661376  	0.037790 
2964.590192  	0.037676 
2966.519008  	0.037439 
2968.447824  	0.037286 
2970.376640  	0.037267 
2972.305456  	0.037080 
2974.234272  	0.036715 
2976.163088  	0.036491 
2978.091904  	0.036451 
2980.020720  	0.036456 
2981.949536  	0.036393 
2983.878352  	0.036118 
2985.807168  	0.035881 
2987.735984  	0.035876 
2989.664800  	0.035914 
2991.593616  	0.036102 
2993.522432  	0.036226 
2995.451248  	0.036237 
2997.380064  	0.036339 
2999.308880  	0.036516 
3001.237696  	0.036779 
3003.166512  	0.036991 
3005.095328  	0.036997 
3007.024144  	0.037140 
3008.952960  	0.037368 
3010.881776  	0.037688 
3012.810592  	0.037957 
3014.739408  	0.037984 
3016.668224  	0.038127 
3018.597040  	0.038308 
3020.525856  	0.038391 
3022.454672  	0.038739 
3024.383488  	0.039032 
3026.312304  	0.039238 
3028.241120  	0.039364 
3030.169936  	0.039350 
3032.098752  	0.039611 
3034.027568  	0.039641 
3035.956384  	0.039634 
3037.885200  	0.039882 
3039.814016  	0.040146 
3041.742832  	0.040492 
3043.671648  	0.040697 
3045.600464  	0.040742 
3047.529280  	0.040850 
3049.458096  	0.041109 
3051.386912  	0.041200 
3053.315728  	0.041417 
3055.244544  	0.041783 
3057.173360  	0.042234 
3059.102176  	0.042520 
3061.030992  	0.042681 
3062.959808  	0.042885 
3064.888624  	0.043163 
3066.817440  	0.043549 
3068.746256  	0.043823 
3070.675072  	0.043976 
3072.603888  	0.044298 
3074.532704  	0.044714 
3076.461520  	0.045144 
3078.390336  	0.045415 
3080.319152  	0.045664 
3082.247968  	0.046017 
3084.176784  	0.046343 
3086.105600  	0.046521 
3088.034416  	0.046782 
3089.963232  	0.047126 
3091.892048  	0.047351 
3093.820864  	0.047538 
3095.749680  	0.047871 
3097.678496  	0.047977 
3099.607312  	0.048238 
3101.536128  	0.048540 
3103.464944  	0.048863 
3105.393760  	0.049119 
3107.322576  	0.049378 
3109.251392  	0.049576 
3111.180208  	0.049752 
3113.109024  	0.049856 
3115.037840  	0.049982 
3116.966656  	0.050225 
3118.895472  	0.050513 
3120.824288  	0.050755 
3122.753104  	0.051020 
3124.681920  	0.051277 
3126.610736  	0.051238 
3128.539552  	0.051326 
3130.468368  	0.051488 
3132.397184  	0.051585 
3134.326000  	0.051717 
3136.254816  	0.051879 
3138.183632  	0.052045 
3140.112448  	0.052136 
3142.041264  	0.052305 
3143.970080  	0.052546 
3145.898896  	0.052678 
3147.827712  	0.052760 
3149.756528  	0.052999 
3151.685344  	0.053380 
3153.614160  	0.053728 
3155.542976  	0.053877 
3157.471792  	0.053871 
3159.400608  	0.054276 
3161.329424  	0.054754 
3163.258240  	0.055126 
3165.187056  	0.055232 
3167.115872  	0.055152 
3169.044688  	0.055344 
3170.973504  	0.055503 
3172.902320  	0.055612 
3174.831136  	0.055718 
3176.759952  	0.055775 
3178.688768  	0.055983 
3180.617584  	0.056007 
3182.546400  	0.055908 
3184.475216  	0.056213 
3186.404032  	0.056408 
3188.332848  	0.056295 
3190.261664  	0.056463 
3192.190480  	0.056587 
3194.119296  	0.056308 
3196.048112  	0.056358 
3197.976928  	0.056651 
3199.905744  	0.056657 
3201.834560  	0.056551 
3203.763376  	0.056721 
3205.692192  	0.056642 
3207.621008  	0.056446 
3209.549824  	0.056366 
3211.478640  	0.056230 
3213.407456  	0.056193 
3215.336272  	0.056354 
3217.265088  	0.056223 
3219.193904  	0.055702 
3221.122720  	0.055335 
3223.051536  	0.055308 
3224.980352  	0.055322 
3226.909168  	0.055053 
3228.837984  	0.054788 
3230.766800  	0.054917 
3232.695616  	0.055021 
3234.624432  	0.054948 
3236.553248  	0.054718 
3238.482064  	0.054600 
3240.410880  	0.054636 
3242.339696  	0.054527 
3244.268512  	0.054388 
3246.197328  	0.054292 
3248.126144  	0.054104 
3250.054960  	0.054159 
3251.983776  	0.054154 
3253.912592  	0.054100 
3255.841408  	0.054080 
3257.770224  	0.054183 
3259.699040  	0.054426 
3261.627856  	0.054621 
3263.556672  	0.054649 
3265.485488  	0.054613 
3267.414304  	0.054626 
3269.343120  	0.054724 
3271.271936  	0.054971 
3273.200752  	0.055165 
3275.129568  	0.055038 
3277.058384  	0.054969 
3278.987200  	0.055191 
3280.916016  	0.055271 
3282.844832  	0.055186 
3284.773648  	0.055199 
3286.702464  	0.055440 
3288.631280  	0.055696 
3290.560096  	0.055755 
3292.488912  	0.055917 
3294.417728  	0.055973 
3296.346544  	0.056007 
3298.275360  	0.056067 
3300.204176  	0.056263 
3302.132992  	0.056350 
3304.061808  	0.056545 
3305.990624  	0.056810 
3307.919440  	0.056898 
3309.848256  	0.056863 
3311.777072  	0.056921 
3313.705888  	0.057123 
3315.634704  	0.057487 
3317.563520  	0.057699 
3319.492336  	0.057691 
3321.421152  	0.057829 
3323.349968  	0.058001 
3325.278784  	0.058266 
3327.207600  	0.058216 
3329.136416  	0.057981 
3331.065232  	0.057891 
3332.994048  	0.058075 
3334.922864  	0.058148 
3336.851680  	0.057916 
3338.780496  	0.057907 
3340.709312  	0.057991 
3342.638128  	0.057843 
3344.566944  	0.057683 
3346.495760  	0.057533 
3348.424576  	0.057340 
3350.353392  	0.057217 
3352.282208  	0.057063 
3354.211024  	0.056910 
3356.139840  	0.056832 
3358.068656  	0.056658 
3359.997472  	0.056465 
3361.926288  	0.056134 
3363.855104  	0.055828 
3365.783920  	0.055517 
3367.712736  	0.055216 
3369.641552  	0.054845 
3371.570368  	0.054496 
3373.499184  	0.054203 
3375.428000  	0.053956 
3377.356816  	0.053712 
3379.285632  	0.053534 
3381.214448  	0.053422 
3383.143264  	0.053224 
3385.072080  	0.053074 
3387.000896  	0.052653 
3388.929712  	0.052342 
3390.858528  	0.052094 
3392.787344  	0.051848 
3394.716160  	0.051438 
3396.644976  	0.051236 
3398.573792  	0.051173 
3400.502608  	0.050644 
3402.431424  	0.050196 
3404.360240  	0.049901 
3406.289056  	0.049580 
3408.217872  	0.049223 
3410.146688  	0.048996 
3412.075504  	0.048872 
3414.004320  	0.048733 
3415.933136  	0.048321 
3417.861952  	0.047864 
3419.790768  	0.047684 
3421.719584  	0.047494 
3423.648400  	0.047029 
3425.577216  	0.046821 
3427.506032  	0.046499 
3429.434848  	0.045949 
3431.363664  	0.045652 
3433.292480  	0.045451 
3435.221296  	0.045251 
3437.150112  	0.044935 
3439.078928  	0.044603 
3441.007744  	0.044321 
3442.936560  	0.044198 
3444.865376  	0.043675 
3446.794192  	0.043177 
3448.723008  	0.043060 
3450.651824  	0.042595 
3452.580640  	0.042030 
3454.509456  	0.041618 
3456.438272  	0.041379 
3458.367088  	0.041131 
3460.295904  	0.040755 
3462.224720  	0.040240 
3464.153536  	0.039647 
3466.082352  	0.039485 
3468.011168  	0.039390 
3469.939984  	0.038908 
3471.868800  	0.038462 
3473.797616  	0.038040 
3475.726432  	0.037474 
3477.655248  	0.036773 
3479.584064  	0.036393 
3481.512880  	0.036204 
3483.441696  	0.035829 
3485.370512  	0.035184 
3487.299328  	0.034814 
3489.228144  	0.034414 
3491.156960  	0.033922 
3493.085776  	0.033584 
3495.014592  	0.033281 
3496.943408  	0.032989 
3498.872224  	0.032452 
3500.801040  	0.031955 
3502.729856  	0.031768 
3504.658672  	0.031326 
3506.587488  	0.030522 
3508.516304  	0.030281 
3510.445120  	0.030444 
3512.373936  	0.030198 
3514.302752  	0.029747 
3516.231568  	0.029221 
3518.160384  	0.028799 
3520.089200  	0.028546 
3522.018016  	0.028413 
3523.946832  	0.028532 
3525.875648  	0.028208 
3527.804464  	0.027721 
3529.733280  	0.027337 
3531.662096  	0.026912 
3533.590912  	0.026449 
3535.519728  	0.026212 
3537.448544  	0.026032 
3539.377360  	0.025396 
3541.306176  	0.024866 
3543.234992  	0.024566 
3545.163808  	0.024883 
3547.092624  	0.024877 
3549.021440  	0.023851 
3550.950256  	0.023189 
3552.879072  	0.023390 
3554.807888  	0.023295 
3556.736704  	0.022746 
3558.665520  	0.022429 
3560.594336  	0.022295 
3562.523152  	0.021827 
3564.451968  	0.021414 
3566.380784  	0.021670 
3568.309600  	0.021920 
3570.238416  	0.020928 
3572.167232  	0.020078 
3574.096048  	0.019707 
3576.024864  	0.019263 
3577.953680  	0.018944 
3579.882496  	0.018749 
3581.811312  	0.018553 
3583.740128  	0.018005 
3585.668944  	0.017422 
3587.597760  	0.018059 
3589.526576  	0.017909 
3591.455392  	0.016430 
3593.384208  	0.016113 
3595.313024  	0.016090 
3597.241840  	0.015472 
3599.170656  	0.014479 
3601.099472  	0.014200 
3603.028288  	0.014123 
3604.957104  	0.013420 
3606.885920  	0.012695 
3608.814736  	0.013010 
3610.743552  	0.012172 
3612.672368  	0.011325 
3614.601184  	0.011444 
3616.530000  	0.010481 
3618.458816  	0.010247 
3620.387632  	0.010895 
3622.316448  	0.010197 
3624.245264  	0.009121 
3626.174080  	0.007614 
3628.102896  	0.006877 
3630.031712  	0.008998 
3631.960528  	0.008281 
3633.889344  	0.007335 
3635.818160  	0.006717 
3637.746976  	0.006311 
3639.675792  	0.006361 
3641.604608  	0.006099 
3643.533424  	0.005438 
3645.462240  	0.003862 
3647.391056  	0.002819 
3649.319872  	0.003230 
3651.248688  	0.004811 
3653.177504  	0.004093 
3655.106320  	0.002758 
3657.035136  	0.003454 
3658.963952  	0.003432 
3660.892768  	0.002672 
3662.821584  	0.002098 
3664.750400  	0.001716 
3666.679216  	0.000616 
3668.608032  	-0.000560 
3670.536848  	0.000344 
3672.465664  	0.000213 
3674.394480  	-0.001501 
3676.323296  	0.000810 
3678.252112  	0.001343 
3680.180928  	0.001144 
3682.109744  	0.000814 
3684.038560  	0.000390 
3685.967376  	-0.000767 
3687.896192  	-0.001804 
3689.825008  	-0.000810 
3691.753824  	0.000197 
3693.682640  	0.000337 
3695.611456  	0.000013 
3697.540272  	0.000082 
3699.469088  	-0.000388 
3701.397904  	-0.000119 
3703.326720  	0.000598 
3705.255536  	0.000123 
3707.184352  	-0.000920 
3709.113168  	-0.001713 
3711.041984  	-0.001408 
3712.970800  	0.000131 
3714.899616  	0.000582 
3716.828432  	0.000023 
3718.757248  	-0.000488 
3720.686064  	-0.000738 
3722.614880  	0.000028 
3724.543696  	0.000614 
3726.472512  	0.001062 
3728.401328  	0.000408 
3730.330144  	-0.001628 
3732.258960  	-0.002110 
3734.187776  	-0.000961 
3736.116592  	0.000913 
3738.045408  	0.000345 
3739.974224  	-0.000746 
3741.903040  	-0.001831 
3743.831856  	-0.001519 
3745.760672  	0.000754 
3747.689488  	-0.001705 
3749.618304  	-0.003197 
3751.547120  	-0.001656 
3753.475936  	0.000562 
3755.404752  	-0.000078 
3757.333568  	-0.000780 
3759.262384  	-0.000518 
3761.191200  	0.000421 
3763.120016  	-0.000069 
3765.048832  	-0.000396 
3766.977648  	-0.000309 
3768.906464  	-0.000743 
3770.835280  	0.000139 
3772.764096  	0.000474 
3774.692912  	0.000114 
3776.621728  	-0.000687 
3778.550544  	-0.001104 
3780.479360  	-0.000126 
3782.408176  	-0.000177 
3784.336992  	-0.000402 
3786.265808  	0.000098 
3788.194624  	0.000143 
3790.123440  	-0.000143 
3792.052256  	-0.000239 
3793.981072  	-0.000778 
3795.909888  	-0.000991 
3797.838704  	-0.000815 
3799.767520  	-0.002199 
3801.696336  	-0.001369 
3803.625152  	-0.000316 
3805.553968  	-0.001468 
3807.482784  	-0.000427 
3809.411600  	0.000289 
3811.340416  	-0.000003 
3813.269232  	-0.001027 
3815.198048  	-0.001937 
3817.126864  	-0.000843 
3819.055680  	-0.002039 
3820.984496  	-0.001456 
3822.913312  	0.000556 
3824.842128  	-0.000368 
3826.770944  	-0.000484 
3828.699760  	-0.000448 
3830.628576  	-0.001178 
3832.557392  	-0.001136 
3834.486208  	-0.001496 
3836.415024  	-0.002130 
3838.343840  	-0.001423 
3840.272656  	-0.000658 
3842.201472  	-0.000526 
3844.130288  	-0.000231 
3846.059104  	0.000049 
3847.987920  	-0.000583 
3849.916736  	-0.001861 
3851.845552  	-0.003424 
3853.774368  	-0.000722 
3855.703184  	0.000873 
3857.632000  	0.000099 
3859.560816  	-0.000605 
3861.489632  	-0.001012 
3863.418448  	-0.001014 
3865.347264  	-0.000229 
3867.276080  	-0.000801 
3869.204896  	-0.001112 
3871.133712  	0.000562 
3873.062528  	-0.000227 
3874.991344  	0.000314 
3876.920160  	-0.000244 
3878.848976  	-0.001005 
3880.777792  	0.000243 
3882.706608  	0.000263 
3884.635424  	-0.000417 
3886.564240  	0.000791 
3888.493056  	-0.000088 
3890.421872  	-0.000623 
3892.350688  	0.000366 
3894.279504  	0.000289 
3896.208320  	-0.000325 
3898.137136  	-0.000551 
3900.065952  	-0.000225 
3901.994768  	-0.000067 
3903.923584  	0.000463 
3905.852400  	0.001099 
3907.781216  	0.000532 
3909.710032  	0.000005 
3911.638848  	0.000019 
3913.567664  	-0.000016 
3915.496480  	0.000038 
3917.425296  	0.000797 
3919.354112  	0.000801 
3921.282928  	0.000477 
3923.211744  	0.000258 
3925.140560  	0.000661 
3927.069376  	0.000346 
3928.998192  	-0.000104 
3930.927008  	0.000435 
3932.855824  	0.001138 
3934.784640  	0.000748 
3936.713456  	0.000453 
3938.642272  	0.000343 
3940.571088  	-0.000008 
3942.499904  	0.000463 
3944.428720  	0.000812 
3946.357536  	0.000380 
3948.286352  	0.000474 
3950.215168  	0.000446 
3952.143984  	0.000067 
3954.072800  	-0.000172 
3956.001616  	-0.000099 
3957.930432  	0.000270 
3959.859248  	0.000465 
3961.788064  	0.000457 
3963.716880  	0.000471 
3965.645696  	0.000219 
3967.574512  	0.000248 
3969.503328  	0.000387 
3971.432144  	0.000252 
3973.360960  	0.000181 
3975.289776  	0.000442 
3977.218592  	0.000618 
3979.147408  	0.000565 
3981.076224  	0.000349 
3983.005040  	0.000243 
3984.933856  	0.000304 
3986.862672  	0.000304 
3988.791488  	0.000277 
3990.720304  	0.000316 
3992.649120  	0.000335 
3994.577936  	0.000405 
3996.506752  	0.000365 
3998.435568  	0.000284 
4000.364384  	0.000305 