##TITLE=No Description
##DATA TYPE=INFRARED SPECTRUM
##XUNITS=1/CM
##YUNITS=Abs
399.264912  	0.571281 
401.193728  	0.573377 
403.122544  	0.576277 
405.051360  	0.563428 
406.980176  	0.553869 
408.908992  	0.547278 
410.837808  	0.558106 
412.766624  	0.565287 
414.695440  	0.575159 
416.624256  	0.566426 
418.553072  	0.547374 
420.481888  	0.527747 
422.410704  	0.532448 
424.339520  	0.534858 
426.268336  	0.542413 
428.197152  	0.537519 
430.125968  	0.534896 
432.054784  	0.525475 
433.983600  	0.520952 
435.912416  	0.513653 
437.841232  	0.511156 
439.770048  	0.510497 
441.698864  	0.515011 
443.627680  	0.510882 
445.556496  	0.505839 
447.485312  	0.502336 
449.414128  	0.500018 
451.342944  	0.492973 
453.271760  	0.493328 
455.200576  	0.493710 
457.129392  	0.495826 
459.058208  	0.494050 
460.987024  	0.494938 
462.915840  	0.492898 
464.844656  	0.493292 
466.773472  	0.492554 
468.702288  	0.493229 
470.631104  	0.486087 
472.559920  	0.482440 
474.488736  	0.478366 
476.417552  	0.482444 
478.346368  	0.481208 
480.275184  	0.480733 
482.204000  	0.479876 
484.132816  	0.481666 
486.061632  	0.477178 
487.990448  	0.476781 
489.919264  	0.475844 
491.848080  	0.475121 
493.776896  	0.471929 
495.705712  	0.471266 
497.634528  	0.470239 
499.563344  	0.471704 
501.492160  	0.469036 
503.420976  	0.469483 
505.349792  	0.466570 
507.278608  	0.465517 
509.207424  	0.463231 
511.136240  	0.464893 
513.065056  	0.464544 
514.993872  	0.464295 
516.922688  	0.462243 
518.851504  	0.464303 
520.780320  	0.464622 
522.709136  	0.464821 
524.637952  	0.459725 
526.566768  	0.458269 
528.495584  	0.457012 
530.424400  	0.455541 
532.353216  	0.453914 
534.282032  	0.451238 
536.210848  	0.446626 
538.139664  	0.445957 
540.068480  	0.441607 
541.997296  	0.437626 
543.926112  	0.434579 
545.854928  	0.432438 
547.783744  	0.428652 
549.712560  	0.426970 
551.641376  	0.423885 
553.570192  	0.422227 
555.499008  	0.420095 
557.427824  	0.418363 
559.356640  	0.414676 
561.285456  	0.411422 
563.214272  	0.408978 
565.143088  	0.407162 
567.071904  	0.402607 
569.000720  	0.399914 
570.929536  	0.397561 
572.858352  	0.395532 
574.787168  	0.393029 
576.715984  	0.390459 
578.644800  	0.387464 
580.573616  	0.384631 
582.502432  	0.381120 
584.431248  	0.379801 
586.360064  	0.378240 
588.288880  	0.376268 
590.217696  	0.373215 
592.146512  	0.371590 
594.075328  	0.369657 
596.004144  	0.366757 
597.932960  	0.364418 
599.861776  	0.364856 
601.790592  	0.364366 
603.719408  	0.362525 
605.648224  	0.359831 
607.577040  	0.359101 
609.505856  	0.358447 
611.434672  	0.357280 
613.363488  	0.355196 
615.292304  	0.352997 
617.221120  	0.350592 
619.149936  	0.349961 
621.078752  	0.347896 
623.007568  	0.345637 
624.936384  	0.343684 
626.865200  	0.342624 
628.794016  	0.341315 
630.722832  	0.339657 
632.651648  	0.337333 
634.580464  	0.335718 
636.509280  	0.335122 
638.438096  	0.334144 
640.366912  	0.332763 
642.295728  	0.330971 
644.224544  	0.328467 
646.153360  	0.326148 
648.082176  	0.323460 
650.010992  	0.320977 
651.939808  	0.317940 
653.868624  	0.314685 
655.797440  	0.310996 
657.726256  	0.308979 
659.655072  	0.306206 
661.583888  	0.303203 
663.512704  	0.300508 
665.441520  	0.297813 
667.370336  	0.294236 
669.299152  	0.291737 
671.227968  	0.289716 
673.156784  	0.286865 
675.085600  	0.284743 
677.014416  	0.283936 
678.943232  	0.282262 
680.872048  	0.279839 
682.800864  	0.277417 
684.729680  	0.276150 
686.658496  	0.274430 
688.587312  	0.272562 
690.516128  	0.270175 
692.444944  	0.268340 
694.373760  	0.266652 
696.302576  	0.265604 
698.231392  	0.263662 
700.160208  	0.260917 
702.089024  	0.258086 
704.017840  	0.256785 
705.946656  	0.254532 
707.875472  	0.251653 
709.804288  	0.249666 
711.733104  	0.247879 
713.661920  	0.246098 
715.590736  	0.245310 
717.519552  	0.243940 
719.448368  	0.243405 
721.377184  	0.243491 
723.306000  	0.242682 
725.234816  	0.241508 
727.163632  	0.240057 
729.092448  	0.237915 
731.021264  	0.235836 
732.950080  	0.233176 
734.878896  	0.230765 
736.807712  	0.228797 
738.736528  	0.227439 
740.665344  	0.225691 
742.594160  	0.224487 
744.522976  	0.222752 
746.451792  	0.221115 
748.380608  	0.219736 
750.309424  	0.218455 
752.238240  	0.217345 
754.167056  	0.216565 
756.095872  	0.214938 
758.024688  	0.213291 
759.953504  	0.212110 
761.882320  	0.211323 
763.811136  	0.210361 
765.739952  	0.209154 
767.668768  	0.207562 
769.597584  	0.205981 
771.526400  	0.205422 
773.455216  	0.205768 
775.384032  	0.206014 
777.312848  	0.206620 
779.241664  	0.207801 
781.170480  	0.207662 
783.099296  	0.205210 
785.028112  	0.201859 
786.956928  	0.197590 
788.885744  	0.193822 
790.814560  	0.190667 
792.743376  	0.188524 
794.672192  	0.186710 
796.601008  	0.185418 
798.529824  	0.183754 
800.458640  	0.181373 
802.387456  	0.178667 
804.316272  	0.176558 
806.245088  	0.175398 
808.173904  	0.174327 
810.102720  	0.173203 
812.031536  	0.172200 
813.960352  	0.171035 
815.889168  	0.170098 
817.817984  	0.169360 
819.746800  	0.168174 
821.675616  	0.166867 
823.604432  	0.165816 
825.533248  	0.164619 
827.462064  	0.163438 
829.390880  	0.162301 
831.319696  	0.161036 
833.248512  	0.159538 
835.177328  	0.158286 
837.106144  	0.156344 
839.034960  	0.153775 
840.963776  	0.151289 
842.892592  	0.149255 
844.821408  	0.147017 
846.750224  	0.144805 
848.679040  	0.142932 
850.607856  	0.141366 
852.536672  	0.139939 
854.465488  	0.138451 
856.394304  	0.136822 
858.323120  	0.135353 
860.251936  	0.133866 
862.180752  	0.132153 
864.109568  	0.130500 
866.038384  	0.129241 
867.967200  	0.127981 
869.896016  	0.126724 
871.824832  	0.125354 
873.753648  	0.124476 
875.682464  	0.124041 
877.611280  	0.123838 
879.540096  	0.123504 
881.468912  	0.123354 
883.397728  	0.123261 
885.326544  	0.122910 
887.255360  	0.122238 
889.184176  	0.121467 
891.112992  	0.120592 
893.041808  	0.119508 
894.970624  	0.118064 
896.899440  	0.116248 
898.828256  	0.114030 
900.757072  	0.111736 
902.685888  	0.109748 
904.614704  	0.108391 
906.543520  	0.107660 
908.472336  	0.107572 
910.401152  	0.107979 
912.329968  	0.108943 
914.258784  	0.110193 
916.187600  	0.111349 
918.116416  	0.112061 
920.045232  	0.112099 
921.974048  	0.111535 
923.902864  	0.110762 
925.831680  	0.109705 
927.760496  	0.108618 
929.689312  	0.107617 
931.618128  	0.107094 
933.546944  	0.106912 
935.475760  	0.106607 
937.404576  	0.106154 
939.333392  	0.106130 
941.262208  	0.106520 
943.191024  	0.107251 
945.119840  	0.108623 
947.048656  	0.110410 
948.977472  	0.112879 
950.906288  	0.115851 
952.835104  	0.118954 
954.763920  	0.121975 
956.692736  	0.124957 
958.621552  	0.127592 
960.550368  	0.129333 
962.479184  	0.130083 
964.408000  	0.129200 
966.336816  	0.127143 
968.265632  	0.123580 
970.194448  	0.119095 
972.123264  	0.113933 
974.052080  	0.108198 
975.980896  	0.102433 
977.909712  	0.097224 
979.838528  	0.092895 
981.767344  	0.089034 
983.696160  	0.086076 
985.624976  	0.084484 
987.553792  	0.084233 
989.482608  	0.084746 
991.411424  	0.086209 
993.340240  	0.088855 
995.269056  	0.092581 
997.197872  	0.096350 
999.126688  	0.099667 
1001.055504  	0.103230 
1002.984320  	0.106872 
1004.913136  	0.110328 
1006.841952  	0.113236 
1008.770768  	0.115858 
1010.699584  	0.117873 
1012.628400  	0.119314 
1014.557216  	0.120152 
1016.486032  	0.120612 
1018.414848  	0.120951 
1020.343664  	0.121245 
1022.272480  	0.121347 
1024.201296  	0.121182 
1026.130112  	0.120594 
1028.058928  	0.120777 
1029.987744  	0.121282 
1031.916560  	0.121895 
1033.845376  	0.122976 
1035.774192  	0.124475 
1037.703008  	0.126086 
1039.631824  	0.128709 
1041.560640  	0.132227 
1043.489456  	0.136865 
1045.418272  	0.142456 
1047.347088  	0.149547 
1049.275904  	0.157562 
1051.204720  	0.165761 
1053.133536  	0.173029 
1055.062352  	0.179276 
1056.991168  	0.183740 
1058.919984  	0.186994 
1060.848800  	0.188269 
1062.777616  	0.188438 
1064.706432  	0.187228 
1066.635248  	0.185433 
1068.564064  	0.183377 
1070.492880  	0.180821 
1072.421696  	0.177412 
1074.350512  	0.174142 
1076.279328  	0.171150 
1078.208144  	0.169127 
1080.136960  	0.167529 
1082.065776  	0.165714 
1083.994592  	0.163834 
1085.923408  	0.162395 
1087.852224  	0.160527 
1089.781040  	0.158669 
1091.709856  	0.155908 
1093.638672  	0.152034 
1095.567488  	0.147075 
1097.496304  	0.141970 
1099.425120  	0.136254 
1101.353936  	0.130711 
1103.282752  	0.125027 
1105.211568  	0.118957 
1107.140384  	0.113041 
1109.069200  	0.107115 
1110.998016  	0.101665 
1112.926832  	0.096807 
1114.855648  	0.091827 
1116.784464  	0.086809 
1118.713280  	0.082566 
1120.642096  	0.078851 
1122.570912  	0.075006 
1124.499728  	0.071302 
1126.428544  	0.067730 
1128.357360  	0.064368 
1130.286176  	0.061391 
1132.214992  	0.058921 
1134.143808  	0.056510 
1136.072624  	0.054420 
1138.001440  	0.052378 
1139.930256  	0.050409 
1141.859072  	0.048703 
1143.787888  	0.047012 
1145.716704  	0.045786 
1147.645520  	0.044862 
1149.574336  	0.044067 
1151.503152  	0.043409 
1153.431968  	0.043228 
1155.360784  	0.043309 
1157.289600  	0.043463 
1159.218416  	0.043603 
1161.147232  	0.044096 
1163.076048  	0.044706 
1165.004864  	0.045558 
1166.933680  	0.046205 
1168.862496  	0.047196 
1170.791312  	0.048349 
1172.720128  	0.049281 
1174.648944  	0.050426 
1176.577760  	0.051657 
1178.506576  	0.052939 
1180.435392  	0.054292 
1182.364208  	0.055581 
1184.293024  	0.057103 
1186.221840  	0.058746 
1188.150656  	0.060425 
1190.079472  	0.062318 
1192.008288  	0.064634 
1193.937104  	0.067134 
1195.865920  	0.070125 
1197.794736  	0.073278 
1199.723552  	0.076633 
1201.652368  	0.080286 
1203.581184  	0.084135 
1205.510000  	0.087817 
1207.438816  	0.091407 
1209.367632  	0.094725 
1211.296448  	0.097876 
1213.225264  	0.101019 
1215.154080  	0.103577 
1217.082896  	0.105737 
1219.011712  	0.107537 
1220.940528  	0.109403 
1222.869344  	0.110667 
1224.798160  	0.111513 
1226.726976  	0.112115 
1228.655792  	0.112422 
1230.584608  	0.112365 
1232.513424  	0.111847 
1234.442240  	0.110643 
1236.371056  	0.109200 
1238.299872  	0.107433 
1240.228688  	0.104890 
1242.157504  	0.101741 
1244.086320  	0.098421 
1246.015136  	0.094693 
1247.943952  	0.090732 
1249.872768  	0.086726 
1251.801584  	0.082791 
1253.730400  	0.078852 
1255.659216  	0.075242 
1257.588032  	0.071709 
1259.516848  	0.068288 
1261.445664  	0.065195 
1263.374480  	0.062306 
1265.303296  	0.059670 
1267.232112  	0.057569 
1269.160928  	0.056001 
1271.089744  	0.055007 
1273.018560  	0.054722 
1274.947376  	0.054656 
1276.876192  	0.054599 
1278.805008  	0.054252 
1280.733824  	0.053279 
1282.662640  	0.051527 
1284.591456  	0.049202 
1286.520272  	0.046731 
1288.449088  	0.044677 
1290.377904  	0.043031 
1292.306720  	0.041717 
1294.235536  	0.040301 
1296.164352  	0.038345 
1298.093168  	0.036090 
1300.021984  	0.033940 
1301.950800  	0.031937 
1303.879616  	0.030358 
1305.808432  	0.029195 
1307.737248  	0.028275 
1309.666064  	0.027397 
1311.594880  	0.027099 
1313.523696  	0.027011 
1315.452512  	0.026954 
1317.381328  	0.027216 
1319.310144  	0.027704 
1321.238960  	0.028127 
1323.167776  	0.028520 
1325.096592  	0.028781 
1327.025408  	0.028845 
1328.954224  	0.028444 
1330.883040  	0.027874 
1332.811856  	0.027185 
1334.740672  	0.026648 
1336.669488  	0.026251 
1338.598304  	0.026149 
1340.527120  	0.025826 
1342.455936  	0.025188 
1344.384752  	0.025014 
1346.313568  	0.025329 
1348.242384  	0.025952 
1350.171200  	0.026967 
1352.100016  	0.028154 
1354.028832  	0.029301 
1355.957648  	0.030570 
1357.886464  	0.031738 
1359.815280  	0.032692 
1361.744096  	0.033811 
1363.672912  	0.034873 
1365.601728  	0.035142 
1367.530544  	0.035319 
1369.459360  	0.035455 
1371.388176  	0.034918 
1373.316992  	0.034219 
1375.245808  	0.033539 
1377.174624  	0.032597 
1379.103440  	0.031515 
1381.032256  	0.030407 
1382.961072  	0.029537 
1384.889888  	0.028955 
1386.818704  	0.028718 
1388.747520  	0.028175 
1390.676336  	0.027068 
1392.605152  	0.025987 
1394.533968  	0.025634 
1396.462784  	0.026183 
1398.391600  	0.026384 
1400.320416  	0.026921 
1402.249232  	0.026978 
1404.178048  	0.027628 
1406.106864  	0.028671 
1408.035680  	0.029604 
1409.964496  	0.030628 
1411.893312  	0.031823 
1413.822128  	0.032755 
1415.750944  	0.033679 
1417.679760  	0.033967 
1419.608576  	0.034166 
1421.537392  	0.034005 
1423.466208  	0.033540 
1425.395024  	0.032909 
1427.323840  	0.031701 
1429.252656  	0.030570 
1431.181472  	0.030029 
1433.110288  	0.029705 
1435.039104  	0.029242 
1436.967920  	0.029735 
1438.896736  	0.030182 
1440.825552  	0.030188 
1442.754368  	0.030397 
1444.683184  	0.030265 
1446.612000  	0.030035 
1448.540816  	0.030319 
1450.469632  	0.030508 
1452.398448  	0.030391 
1454.327264  	0.029751 
1456.256080  	0.028984 
1458.184896  	0.030308 
1460.113712  	0.031124 
1462.042528  	0.030985 
1463.971344  	0.030685 
1465.900160  	0.032135 
1467.828976  	0.033553 
1469.757792  	0.034329 
1471.686608  	0.035238 
1473.615424  	0.038515 
1475.544240  	0.040817 
1477.473056  	0.042331 
1479.401872  	0.042622 
1481.330688  	0.042843 
1483.259504  	0.042852 
1485.188320  	0.042038 
1487.117136  	0.040597 
1489.045952  	0.039433 
1490.974768  	0.038182 
1492.903584  	0.036275 
1494.832400  	0.033831 
1496.761216  	0.031754 
1498.690032  	0.030400 
1500.618848  	0.029800 
1502.547664  	0.028491 
1504.476480  	0.025864 
1506.405296  	0.024471 
1508.334112  	0.027003 
1510.262928  	0.026689 
1512.191744  	0.025764 
1514.120560  	0.024790 
1516.049376  	0.024308 
1517.978192  	0.024389 
1519.907008  	0.024028 
1521.835824  	0.025124 
1523.764640  	0.027101 
1525.693456  	0.028798 
1527.622272  	0.030554 
1529.551088  	0.031407 
1531.479904  	0.031367 
1533.408720  	0.031152 
1535.337536  	0.031298 
1537.266352  	0.028925 
1539.195168  	0.025272 
1541.123984  	0.024954 
1543.052800  	0.026615 
1544.981616  	0.027181 
1546.910432  	0.026598 
1548.839248  	0.025921 
1550.768064  	0.026142 
1552.696880  	0.025390 
1554.625696  	0.025147 
1556.554512  	0.023505 
1558.483328  	0.021902 
1560.412144  	0.027291 
1562.340960  	0.029184 
1564.269776  	0.029813 
1566.198592  	0.031632 
1568.127408  	0.032602 
1570.056224  	0.035502 
1571.985040  	0.038221 
1573.913856  	0.038442 
1575.842672  	0.038640 
1577.771488  	0.041141 
1579.700304  	0.041561 
1581.629120  	0.041661 
1583.557936  	0.041974 
1585.486752  	0.042940 
1587.415568  	0.044391 
1589.344384  	0.046628 
1591.273200  	0.049123 
1593.202016  	0.052137 
1595.130832  	0.054919 
1597.059648  	0.057647 
1598.988464  	0.059726 
1600.917280  	0.061400 
1602.846096  	0.062353 
1604.774912  	0.062904 
1606.703728  	0.062617 
1608.632544  	0.062449 
1610.561360  	0.062198 
1612.490176  	0.062046 
1614.418992  	0.061046 
1616.347808  	0.061363 
1618.276624  	0.064377 
1620.205440  	0.066591 
1622.134256  	0.068123 
1624.063072  	0.072434 
1625.991888  	0.076227 
1627.920704  	0.080278 
1629.849520  	0.085055 
1631.778336  	0.088571 
1633.707152  	0.090254 
1635.635968  	0.094225 
1637.564784  	0.100385 
1639.493600  	0.103428 
1641.422416  	0.105791 
1643.351232  	0.106891 
1645.280048  	0.106425 
1647.208864  	0.108368 
1649.137680  	0.109984 
1651.066496  	0.107538 
1652.995312  	0.105785 
1654.924128  	0.110460 
1656.852944  	0.110128 
1658.781760  	0.109422 
1660.710576  	0.108372 
1662.639392  	0.107977 
1664.568208  	0.108442 
1666.497024  	0.107464 
1668.425840  	0.105837 
1670.354656  	0.106190 
1672.283472  	0.106621 
1674.212288  	0.106174 
1676.141104  	0.107813 
1678.069920  	0.108710 
1679.998736  	0.109191 
1681.927552  	0.108318 
1683.856368  	0.107551 
1685.785184  	0.111228 
1687.714000  	0.111231 
1689.642816  	0.110820 
1691.571632  	0.109887 
1693.500448  	0.107353 
1695.429264  	0.104384 
1697.358080  	0.102896 
1699.286896  	0.099570 
1701.215712  	0.098388 
1703.144528  	0.096051 
1705.073344  	0.092382 
1707.002160  	0.089416 
1708.930976  	0.086695 
1710.859792  	0.083174 
1712.788608  	0.078828 
1714.717424  	0.074097 
1716.646240  	0.069251 
1718.575056  	0.065825 
1720.503872  	0.062440 
1722.432688  	0.058618 
1724.361504  	0.054450 
1726.290320  	0.050443 
1728.219136  	0.046452 
1730.147952  	0.042637 
1732.076768  	0.038335 
1734.005584  	0.034566 
1735.934400  	0.031758 
1737.863216  	0.028607 
1739.792032  	0.025067 
1741.720848  	0.022877 
1743.649664  	0.020911 
1745.578480  	0.018626 
1747.507296  	0.016194 
1749.436112  	0.014876 
1751.364928  	0.014403 
1753.293744  	0.013681 
1755.222560  	0.012240 
1757.151376  	0.011731 
1759.080192  	0.010833 
1761.009008  	0.010163 
1762.937824  	0.010071 
1764.866640  	0.009740 
1766.795456  	0.009188 
1768.724272  	0.008960 
1770.653088  	0.007025 
1772.581904  	0.006898 
1774.510720  	0.008022 
1776.439536  	0.008253 
1778.368352  	0.007990 
1780.297168  	0.007961 
1782.225984  	0.007827 
1784.154800  	0.007875 
1786.083616  	0.007934 
1788.012432  	0.007500 
1789.941248  	0.006793 
1791.870064  	0.006557 
1793.798880  	0.006835 
1795.727696  	0.007264 
1797.656512  	0.006854 
1799.585328  	0.006361 
1801.514144  	0.006669 
1803.442960  	0.006601 
1805.371776  	0.006310 
1807.300592  	0.006166 
1809.229408  	0.005610 
1811.158224  	0.005680 
1813.087040  	0.005770 
1815.015856  	0.005511 
1816.944672  	0.005472 
1818.873488  	0.005673 
1820.802304  	0.005634 
1822.731120  	0.005561 
1824.659936  	0.005429 
1826.588752  	0.005561 
1828.517568  	0.004780 
1830.446384  	0.005261 
1832.375200  	0.005741 
1834.304016  	0.005488 
1836.232832  	0.005370 
1838.161648  	0.005810 
1840.090464  	0.005650 
1842.019280  	0.004972 
1843.948096  	0.004551 
1845.876912  	0.005361 
1847.805728  	0.005683 
1849.734544  	0.005742 
1851.663360  	0.005301 
1853.592176  	0.005271 
1855.520992  	0.005282 
1857.449808  	0.005503 
1859.378624  	0.005447 
1861.307440  	0.005287 
1863.236256  	0.004915 
1865.165072  	0.004815 
1867.093888  	0.004678 
1869.022704  	0.005125 
1870.951520  	0.005321 
1872.880336  	0.005386 
1874.809152  	0.005085 
1876.737968  	0.005007 
1878.666784  	0.004913 
1880.595600  	0.005076 
1882.524416  	0.005094 
1884.453232  	0.004860 
1886.382048  	0.004646 
1888.310864  	0.004709 
1890.239680  	0.004858 
1892.168496  	0.005162 
1894.097312  	0.004801 
1896.026128  	0.004789 
1897.954944  	0.004671 
1899.883760  	0.004650 
1901.812576  	0.004444 
1903.741392  	0.004602 
1905.670208  	0.004564 
1907.599024  	0.004419 
1909.527840  	0.004269 
1911.456656  	0.004616 
1913.385472  	0.004990 
1915.314288  	0.005044 
1917.243104  	0.004512 
1919.171920  	0.004663 
1921.100736  	0.004661 
1923.029552  	0.005309 
1924.958368  	0.004958 
1926.887184  	0.004748 
1928.816000  	0.004592 
1930.744816  	0.004318 
1932.673632  	0.004381 
1934.602448  	0.004990 
1936.531264  	0.005054 
1938.460080  	0.004411 
1940.388896  	0.003899 
1942.317712  	0.004321 
1944.246528  	0.004759 
1946.175344  	0.005260 
1948.104160  	0.004229 
1950.032976  	0.004101 
1951.961792  	0.004827 
1953.890608  	0.005397 
1955.819424  	0.004416 
1957.748240  	0.003714 
1959.677056  	0.003683 
1961.605872  	0.004050 
1963.534688  	0.004088 
1965.463504  	0.005272 
1967.392320  	0.004924 
1969.321136  	0.003921 
1971.249952  	0.004253 
1973.178768  	0.005276 
1975.107584  	0.003638 
1977.036400  	0.003562 
1978.965216  	0.006350 
1980.894032  	0.006793 
1982.822848  	0.005593 
1984.751664  	0.005861 
1986.680480  	0.005908 
1988.609296  	0.005915 
1990.538112  	0.005447 
1992.466928  	0.005473 
1994.395744  	0.005491 
1996.324560  	0.005849 
1998.253376  	0.005485 
2000.182192  	0.004944 
2002.111008  	0.005126 
2004.039824  	0.005287 
2005.968640  	0.004738 
2007.897456  	0.005547 
2009.826272  	0.005014 
2011.755088  	0.003947 
2013.683904  	0.004855 
2015.612720  	0.005911 
2017.541536  	0.005693 
2019.470352  	0.005828 
2021.399168  	0.005083 
2023.327984  	0.004942 
2025.256800  	0.005097 
2027.185616  	0.005659 
2029.114432  	0.005226 
2031.043248  	0.005547 
2032.972064  	0.005500 
2034.900880  	0.005952 
2036.829696  	0.005701 
2038.758512  	0.006004 
2040.687328  	0.005932 
2042.616144  	0.005153 
2044.544960  	0.005080 
2046.473776  	0.005935 
2048.402592  	0.005845 
2050.331408  	0.006664 
2052.260224  	0.006558 
2054.189040  	0.006396 
2056.117856  	0.005852 
2058.046672  	0.006168 
2059.975488  	0.005895 
2061.904304  	0.005701 
2063.833120  	0.006703 
2065.761936  	0.007304 
2067.690752  	0.006656 
2069.619568  	0.005921 
2071.548384  	0.004840 
2073.477200  	0.005280 
2075.406016  	0.006432 
2077.334832  	0.006876 
2079.263648  	0.005987 
2081.192464  	0.005708 
2083.121280  	0.006203 
2085.050096  	0.006079 
2086.978912  	0.005818 
2088.907728  	0.005953 
2090.836544  	0.005884 
2092.765360  	0.005607 
2094.694176  	0.005408 
2096.622992  	0.005341 
2098.551808  	0.005109 
2100.480624  	0.005502 
2102.409440  	0.005655 
2104.338256  	0.006071 
2106.267072  	0.005830 
2108.195888  	0.005911 
2110.124704  	0.006643 
2112.053520  	0.006833 
2113.982336  	0.006342 
2115.911152  	0.006306 
2117.839968  	0.005795 
2119.768784  	0.005339 
2121.697600  	0.005108 
2123.626416  	0.005235 
2125.555232  	0.005263 
2127.484048  	0.005172 
2129.412864  	0.004862 
2131.341680  	0.004311 
2133.270496  	0.004867 
2135.199312  	0.005368 
2137.128128  	0.004906 
2139.056944  	0.004938 
2140.985760  	0.004202 
2142.914576  	0.004463 
2144.843392  	0.004621 
2146.772208  	0.005383 
2148.701024  	0.005875 
2150.629840  	0.005330 
2152.558656  	0.003499 
2154.487472  	0.002490 
2156.416288  	0.002641 
2158.345104  	0.005195 
2160.273920  	0.008231 
2162.202736  	0.009097 
2164.131552  	0.008595 
2166.060368  	0.008337 
2167.989184  	0.006658 
2169.918000  	0.006276 
2171.846816  	0.006519 
2173.775632  	0.006781 
2175.704448  	0.007719 
2177.633264  	0.008024 
2179.562080  	0.007473 
2181.490896  	0.006489 
2183.419712  	0.005937 
2185.348528  	0.006708 
2187.277344  	0.007310 
2189.206160  	0.007331 
2191.134976  	0.007447 
2193.063792  	0.008638 
2194.992608  	0.008925 
2196.921424  	0.007704 
2198.850240  	0.007344 
2200.779056  	0.007611 
2202.707872  	0.007655 
2204.636688  	0.007526 
2206.565504  	0.007375 
2208.494320  	0.007939 
2210.423136  	0.006504 
2212.351952  	0.006244 
2214.280768  	0.006525 
2216.209584  	0.006250 
2218.138400  	0.006115 
2220.067216  	0.006445 
2221.996032  	0.006781 
2223.924848  	0.006450 
2225.853664  	0.007017 
2227.782480  	0.007749 
2229.711296  	0.007457 
2231.640112  	0.006809 
2233.568928  	0.006723 
2235.497744  	0.007142 
2237.426560  	0.006794 
2239.355376  	0.006678 
2241.284192  	0.006495 
2243.213008  	0.006538 
2245.141824  	0.006725 
2247.070640  	0.006608 
2248.999456  	0.006415 
2250.928272  	0.006470 
2252.857088  	0.006127 
2254.785904  	0.005916 
2256.714720  	0.006390 
2258.643536  	0.006632 
2260.572352  	0.006365 
2262.501168  	0.006740 
2264.429984  	0.007007 
2266.358800  	0.007097 
2268.287616  	0.006853 
2270.216432  	0.006875 
2272.145248  	0.006948 
2274.074064  	0.007116 
2276.002880  	0.007050 
2277.931696  	0.007439 
2279.860512  	0.007685 
2281.789328  	0.007816 
2283.718144  	0.007743 
2285.646960  	0.008049 
2287.575776  	0.008176 
2289.504592  	0.007755 
2291.433408  	0.007429 
2293.362224  	0.007543 
2295.291040  	0.007829 
2297.219856  	0.008175 
2299.148672  	0.008221 
2301.077488  	0.008201 
2303.006304  	0.008332 
2304.935120  	0.008367 
2306.863936  	0.008254 
2308.792752  	0.008400 
2310.721568  	0.008647 
2312.650384  	0.008315 
2314.579200  	0.007805 
2316.508016  	0.007691 
2318.436832  	0.007403 
2320.365648  	0.007221 
2322.294464  	0.007143 
2324.223280  	0.006410 
2326.152096  	0.004737 
2328.080912  	0.003755 
2330.009728  	0.003664 
2331.938544  	0.003325 
2333.867360  	0.002224 
2335.796176  	0.001317 
2337.724992  	0.000859 
2339.653808  	0.000726 
2341.582624  	0.001184 
2343.511440  	0.002455 
2345.440256  	0.003821 
2347.369072  	0.005212 
2349.297888  	0.004852 
2351.226704  	0.003126 
2353.155520  	0.001816 
2355.084336  	0.000851 
2357.013152  	-0.000348 
2358.941968  	-0.001333 
2360.870784  	-0.001611 
2362.799600  	-0.000988 
2364.728416  	-0.000012 
2366.657232  	0.000991 
2368.586048  	0.002052 
2370.514864  	0.003558 
2372.443680  	0.004949 
2374.372496  	0.006446 
2376.301312  	0.007423 
2378.230128  	0.008057 
2380.158944  	0.008054 
2382.087760  	0.007825 
2384.016576  	0.007684 
2385.945392  	0.007543 
2387.874208  	0.007115 
2389.803024  	0.006840 
2391.731840  	0.006751 
2393.660656  	0.006778 
2395.589472  	0.006928 
2397.518288  	0.007073 
2399.447104  	0.007001 
2401.375920  	0.006628 
2403.304736  	0.006685 
2405.233552  	0.006903 
2407.162368  	0.006934 
2409.091184  	0.006814 
2411.020000  	0.006986 
2412.948816  	0.007358 
2414.877632  	0.007361 
2416.806448  	0.007268 
2418.735264  	0.007279 
2420.664080  	0.007236 
2422.592896  	0.007009 
2424.521712  	0.006960 
2426.450528  	0.007222 
2428.379344  	0.007312 
2430.308160  	0.007240 
2432.236976  	0.007358 
2434.165792  	0.007626 
2436.094608  	0.007860 
2438.023424  	0.007879 
2439.952240  	0.007821 
2441.881056  	0.007801 
2443.809872  	0.007924 
2445.738688  	0.007971 
2447.667504  	0.008020 
2449.596320  	0.007979 
2451.525136  	0.008064 
2453.453952  	0.008296 
2455.382768  	0.008506 
2457.311584  	0.008495 
2459.240400  	0.008392 
2461.169216  	0.008322 
2463.098032  	0.008225 
2465.026848  	0.008262 
2466.955664  	0.008200 
2468.884480  	0.007949 
2470.813296  	0.007934 
2472.742112  	0.008074 
2474.670928  	0.008206 
2476.599744  	0.008322 
2478.528560  	0.008396 
2480.457376  	0.008503 
2482.386192  	0.008465 
2484.315008  	0.008509 
2486.243824  	0.008659 
2488.172640  	0.008489 
2490.101456  	0.008541 
2492.030272  	0.008755 
2493.959088  	0.008626 
2495.887904  	0.008381 
2497.816720  	0.008507 
2499.745536  	0.008568 
2501.674352  	0.008701 
2503.603168  	0.008852 
2505.531984  	0.008897 
2507.460800  	0.008795 
2509.389616  	0.008644 
2511.318432  	0.008480 
2513.247248  	0.008590 
2515.176064  	0.008767 
2517.104880  	0.009174 
2519.033696  	0.009336 
2520.962512  	0.009305 
2522.891328  	0.009543 
2524.820144  	0.009502 
2526.748960  	0.009238 
2528.677776  	0.009277 
2530.606592  	0.009271 
2532.535408  	0.009355 
2534.464224  	0.009527 
2536.393040  	0.009509 
2538.321856  	0.009254 
2540.250672  	0.009269 
2542.179488  	0.009451 
2544.108304  	0.009650 
2546.037120  	0.009529 
2547.965936  	0.009868 
2549.894752  	0.010339 
2551.823568  	0.010287 
2553.752384  	0.010098 
2555.681200  	0.010213 
2557.610016  	0.010301 
2559.538832  	0.010325 
2561.467648  	0.010263 
2563.396464  	0.010281 
2565.325280  	0.010441 
2567.254096  	0.010492 
2569.182912  	0.010542 
2571.111728  	0.010553 
2573.040544  	0.010307 
2574.969360  	0.010238 
2576.898176  	0.010458 
2578.826992  	0.010715 
2580.755808  	0.010692 
2582.684624  	0.010686 
2584.613440  	0.010589 
2586.542256  	0.010677 
2588.471072  	0.010901 
2590.399888  	0.010737 
2592.328704  	0.010694 
2594.257520  	0.010995 
2596.186336  	0.011358 
2598.115152  	0.011406 
2600.043968  	0.011147 
2601.972784  	0.011106 
2603.901600  	0.011357 
2605.830416  	0.011481 
2607.759232  	0.011281 
2609.688048  	0.011364 
2611.616864  	0.011503 
2613.545680  	0.011661 
2615.474496  	0.011805 
2617.403312  	0.011847 
2619.332128  	0.011871 
2621.260944  	0.011899 
2623.189760  	0.011954 
2625.118576  	0.012002 
2627.047392  	0.012031 
2628.976208  	0.012277 
2630.905024  	0.012318 
2632.833840  	0.012450 
2634.762656  	0.012603 
2636.691472  	0.012600 
2638.620288  	0.012480 
2640.549104  	0.012477 
2642.477920  	0.012604 
2644.406736  	0.012617 
2646.335552  	0.012771 
2648.264368  	0.012895 
2650.193184  	0.012939 
2652.122000  	0.013086 
2654.050816  	0.013159 
2655.979632  	0.013094 
2657.908448  	0.013146 
2659.837264  	0.013190 
2661.766080  	0.013177 
2663.694896  	0.013170 
2665.623712  	0.013031 
2667.552528  	0.012994 
2669.481344  	0.013166 
2671.410160  	0.013383 
2673.338976  	0.013413 
2675.267792  	0.013448 
2677.196608  	0.013544 
2679.125424  	0.013715 
2681.054240  	0.013769 
2682.983056  	0.013758 
2684.911872  	0.013844 
2686.840688  	0.013875 
2688.769504  	0.013938 
2690.698320  	0.014040 
2692.627136  	0.014086 
2694.555952  	0.014078 
2696.484768  	0.013961 
2698.413584  	0.014033 
2700.342400  	0.014121 
2702.271216  	0.014251 
2704.200032  	0.014489 
2706.128848  	0.014628 
2708.057664  	0.014649 
2709.986480  	0.014641 
2711.915296  	0.014674 
2713.844112  	0.014764 
2715.772928  	0.014903 
2717.701744  	0.014998 
2719.630560  	0.014986 
2721.559376  	0.014980 
2723.488192  	0.015090 
2725.417008  	0.015210 
2727.345824  	0.015202 
2729.274640  	0.015205 
2731.203456  	0.015300 
2733.132272  	0.015432 
2735.061088  	0.015578 
2736.989904  	0.015642 
2738.918720  	0.015564 
2740.847536  	0.015551 
2742.776352  	0.015674 
2744.705168  	0.015837 
2746.633984  	0.015840 
2748.562800  	0.015901 
2750.491616  	0.016014 
2752.420432  	0.016026 
2754.349248  	0.016021 
2756.278064  	0.016122 
2758.206880  	0.016130 
2760.135696  	0.016253 
2762.064512  	0.016253 
2763.993328  	0.016175 
2765.922144  	0.016244 
2767.850960  	0.016293 
2769.779776  	0.016255 
2771.708592  	0.016317 
2773.637408  	0.016440 
2775.566224  	0.016490 
2777.495040  	0.016414 
2779.423856  	0.016403 
2781.352672  	0.016564 
2783.281488  	0.016732 
2785.210304  	0.016776 
2787.139120  	0.016855 
2789.067936  	0.016953 
2790.996752  	0.016996 
2792.925568  	0.017093 
2794.854384  	0.017166 
2796.783200  	0.017214 
2798.712016  	0.017181 
2800.640832  	0.017263 
2802.569648  	0.017453 
2804.498464  	0.017563 
2806.427280  	0.017669 
2808.356096  	0.017767 
2810.284912  	0.017867 
2812.213728  	0.017849 
2814.142544  	0.017765 
2816.071360  	0.017886 
2818.000176  	0.017953 
2819.928992  	0.017941 
2821.857808  	0.017986 
2823.786624  	0.017967 
2825.715440  	0.017912 
2827.644256  	0.017807 
2829.573072  	0.017878 
2831.501888  	0.017902 
2833.430704  	0.017951 
2835.359520  	0.017911 
2837.288336  	0.017786 
2839.217152  	0.017848 
2841.145968  	0.017785 
2843.074784  	0.017582 
2845.003600  	0.017573 
2846.932416  	0.017665 
2848.861232  	0.017573 
2850.790048  	0.017458 
2852.718864  	0.017429 
2854.647680  	0.017467 
2856.576496  	0.017575 
2858.505312  	0.017609 
2860.434128  	0.017628 
2862.362944  	0.017618 
2864.291760  	0.017475 
2866.220576  	0.017316 
2868.149392  	0.017563 
2870.078208  	0.017919 
2872.007024  	0.018110 
2873.935840  	0.018286 
2875.864656  	0.018591 
2877.793472  	0.018871 
2879.722288  	0.018999 
2881.651104  	0.019084 
2883.579920  	0.019074 
2885.508736  	0.019192 
2887.437552  	0.019488 
2889.366368  	0.019580 
2891.295184  	0.019586 
2893.224000  	0.019640 
2895.152816  	0.019761 
2897.081632  	0.019536 
2899.010448  	0.019272 
2900.939264  	0.019309 
2902.868080  	0.019669 
2904.796896  	0.019883 
2906.725712  	0.019932 
2908.654528  	0.020100 
2910.583344  	0.020230 
2912.512160  	0.020489 
2914.440976  	0.020909 
2916.369792  	0.021267 
2918.298608  	0.021477 
2920.227424  	0.021687 
2922.156240  	0.022166 
2924.085056  	0.022575 
2926.013872  	0.022980 
2927.942688  	0.023450 
2929.871504  	0.023885 
2931.800320  	0.024284 
2933.729136  	0.024659 
2935.657952  	0.024867 
2937.586768  	0.025004 
2939.515584  	0.025087 
2941.444400  	0.025281 
2943.373216  	0.025613 
2945.302032  	0.025801 
2947.230848  	0.025746 
2949.159664  	0.025687 
2951.088480  	0.025636 
2953.017296  	0.025610 
2954.946112  	0.025331 
2956.874928  	0.025080 
2958.803744  	0.024861 
2960.732560  	0.024694 
2962.661376  	0.024625 
2964.590192  	0.024410 
2966.519008  	0.024310 
2968.447824  	0.024086 
2970.376640  	0.023900 
2972.305456  	0.023673 
2974.234272  	0.023564 
2976.163088  	0.023584 
2978.091904  	0.023574 
2980.020720  	0.023441 
2981.949536  	0.023335 
2983.878352  	0.023083 
2985.807168  	0.022799 
2987.735984  	0.022845 
2989.664800  	0.023000 
2991.593616  	0.023397 
2993.522432  	0.023650 
2995.451248  	0.023735 
2997.380064  	0.023859 
2999.308880  	0.024062 
3001.237696  	0.024392 
3003.166512  	0.024667 
3005.095328  	0.024760 
3007.024144  	0.024886 
3008.952960  	0.025104 
3010.881776  	0.025425 
3012.810592  	0.025772 
3014.739408  	0.025942 
3016.668224  	0.026167 
3018.597040  	0.026313 
3020.525856  	0.026424 
3022.454672  	0.026683 
3024.383488  	0.026918 
3026.312304  	0.027163 
3028.241120  	0.027314 
3030.169936  	0.027353 
3032.098752  	0.027610 
3034.027568  	0.027688 
3035.956384  	0.027771 
3037.885200  	0.028029 
3039.814016  	0.028320 
3041.742832  	0.028666 
3043.671648  	0.028736 
3045.600464  	0.028678 
3047.529280  	0.028760 
3049.458096  	0.028953 
3051.386912  	0.029034 
3053.315728  	0.029129 
3055.244544  	0.029420 
3057.173360  	0.029844 
3059.102176  	0.030000 
3061.030992  	0.030059 
3062.959808  	0.030244 
3064.888624  	0.030423 
3066.817440  	0.030700 
3068.746256  	0.030924 
3070.675072  	0.030976 
3072.603888  	0.031218 
3074.532704  	0.031622 
3076.461520  	0.032001 
3078.390336  	0.032135 
3080.319152  	0.032279 
3082.247968  	0.032565 
3084.176784  	0.032730 
3086.105600  	0.032746 
3088.034416  	0.032972 
3089.963232  	0.033335 
3091.892048  	0.033568 
3093.820864  	0.033575 
3095.749680  	0.033801 
3097.678496  	0.033971 
3099.607312  	0.034183 
3101.536128  	0.034507 
3103.464944  	0.034818 
3105.393760  	0.034976 
3107.322576  	0.035065 
3109.251392  	0.035262 
3111.180208  	0.035482 
3113.109024  	0.035637 
3115.037840  	0.035805 
3116.966656  	0.036076 
3118.895472  	0.036268 
3120.824288  	0.036209 
3122.753104  	0.036304 
3124.681920  	0.036486 
3126.610736  	0.036464 
3128.539552  	0.036577 
3130.468368  	0.036648 
3132.397184  	0.036640 
3134.326000  	0.036773 
3136.254816  	0.037015 
3138.183632  	0.037199 
3140.112448  	0.037294 
3142.041264  	0.037379 
3143.970080  	0.037513 
3145.898896  	0.037608 
3147.827712  	0.037737 
3149.756528  	0.037960 
3151.685344  	0.038253 
3153.614160  	0.038485 
3155.542976  	0.038406 
3157.471792  	0.038607 
3159.400608  	0.039127 
3161.329424  	0.039398 
3163.258240  	0.039496 
3165.187056  	0.039617 
3167.115872  	0.039773 
3169.044688  	0.039834 
3170.973504  	0.039844 
3172.902320  	0.039966 
3174.831136  	0.040163 
3176.759952  	0.040367 
3178.688768  	0.040652 
3180.617584  	0.040766 
3182.546400  	0.040548 
3184.475216  	0.040705 
3186.404032  	0.040854 
3188.332848  	0.040683 
3190.261664  	0.040819 
3192.190480  	0.040987 
3194.119296  	0.040916 
3196.048112  	0.040915 
3197.976928  	0.041217 
3199.905744  	0.041233 
3201.834560  	0.041193 
3203.763376  	0.041320 
3205.692192  	0.041450 
3207.621008  	0.041418 
3209.549824  	0.041418 
3211.478640  	0.041230 
3213.407456  	0.041070 
3215.336272  	0.041305 
3217.265088  	0.041247 
3219.193904  	0.040813 
3221.122720  	0.040767 
3223.051536  	0.040711 
3224.980352  	0.040450 
3226.909168  	0.040248 
3228.837984  	0.040108 
3230.766800  	0.040172 
3232.695616  	0.040311 
3234.624432  	0.040250 
3236.553248  	0.040245 
3238.482064  	0.040174 
3240.410880  	0.040005 
3242.339696  	0.039816 
3244.268512  	0.039737 
3246.197328  	0.039809 
3248.126144  	0.039812 
3250.054960  	0.039784 
3251.983776  	0.039620 
3253.912592  	0.039684 
3255.841408  	0.039818 
3257.770224  	0.039960 
3259.699040  	0.040064 
3261.627856  	0.040139 
3263.556672  	0.040154 
3265.485488  	0.040027 
3267.414304  	0.040110 
3269.343120  	0.040195 
3271.271936  	0.040344 
3273.200752  	0.040597 
3275.129568  	0.040728 
3277.058384  	0.040731 
3278.987200  	0.040814 
3280.916016  	0.040877 
3282.844832  	0.040985 
3284.773648  	0.041036 
3286.702464  	0.040903 
3288.631280  	0.040973 
3290.560096  	0.041235 
3292.488912  	0.041440 
3294.417728  	0.041418 
3296.346544  	0.041469 
3298.275360  	0.041602 
3300.204176  	0.041748 
3302.132992  	0.041930 
3304.061808  	0.041989 
3305.990624  	0.042115 
3307.919440  	0.042248 
3309.848256  	0.042446 
3311.777072  	0.042382 
3313.705888  	0.042448 
3315.634704  	0.042847 
3317.563520  	0.043085 
3319.492336  	0.043217 
3321.421152  	0.043229 
3323.349968  	0.043283 
3325.278784  	0.043509 
3327.207600  	0.043557 
3329.136416  	0.043671 
3331.065232  	0.043645 
3332.994048  	0.043572 
3334.922864  	0.043600 
3336.851680  	0.043600 
3338.780496  	0.043577 
3340.709312  	0.043542 
3342.638128  	0.043485 
3344.566944  	0.043454 
3346.495760  	0.043363 
3348.424576  	0.043284 
3350.353392  	0.043178 
3352.282208  	0.043058 
3354.211024  	0.042894 
3356.139840  	0.042889 
3358.068656  	0.042801 
3359.997472  	0.042564 
3361.926288  	0.042253 
3363.855104  	0.042064 
3365.783920  	0.042035 
3367.712736  	0.041886 
3369.641552  	0.041437 
3371.570368  	0.041215 
3373.499184  	0.041190 
3375.428000  	0.041078 
3377.356816  	0.040911 
3379.285632  	0.040779 
3381.214448  	0.040598 
3383.143264  	0.040394 
3385.072080  	0.040384 
3387.000896  	0.040168 
3388.929712  	0.040035 
3390.858528  	0.039785 
3392.787344  	0.039511 
3394.716160  	0.039177 
3396.644976  	0.039035 
3398.573792  	0.038866 
3400.502608  	0.038358 
3402.431424  	0.038000 
3404.360240  	0.037851 
3406.289056  	0.037754 
3408.217872  	0.037619 
3410.146688  	0.037438 
3412.075504  	0.037432 
3414.004320  	0.037395 
3415.933136  	0.036934 
3417.861952  	0.036398 
3419.790768  	0.036290 
3421.719584  	0.036157 
3423.648400  	0.035712 
3425.577216  	0.035566 
3427.506032  	0.035488 
3429.434848  	0.035083 
3431.363664  	0.034848 
3433.292480  	0.034785 
3435.221296  	0.034742 
3437.150112  	0.034499 
3439.078928  	0.034222 
3441.007744  	0.033957 
3442.936560  	0.033944 
3444.865376  	0.033580 
3446.794192  	0.033120 
3448.723008  	0.033062 
3450.651824  	0.032752 
3452.580640  	0.032489 
3454.509456  	0.032096 
3456.438272  	0.031682 
3458.367088  	0.031543 
3460.295904  	0.031417 
3462.224720  	0.031037 
3464.153536  	0.030639 
3466.082352  	0.030584 
3468.011168  	0.030412 
3469.939984  	0.029850 
3471.868800  	0.029231 
3473.797616  	0.028786 
3475.726432  	0.028503 
3477.655248  	0.028264 
3479.584064  	0.027988 
3481.512880  	0.027741 
3483.441696  	0.027561 
3485.370512  	0.027025 
3487.299328  	0.026848 
3489.228144  	0.026702 
3491.156960  	0.026146 
3493.085776  	0.025700 
3495.014592  	0.025520 
3496.943408  	0.025376 
3498.872224  	0.024832 
3500.801040  	0.024559 
3502.729856  	0.024529 
3504.658672  	0.024260 
3506.587488  	0.023491 
3508.516304  	0.023253 
3510.445120  	0.023339 
3512.373936  	0.023053 
3514.302752  	0.022838 
3516.231568  	0.022326 
3518.160384  	0.021815 
3520.089200  	0.021677 
3522.018016  	0.021557 
3523.946832  	0.021707 
3525.875648  	0.021440 
3527.804464  	0.020961 
3529.733280  	0.020686 
3531.662096  	0.020335 
3533.590912  	0.020034 
3535.519728  	0.020047 
3537.448544  	0.020137 
3539.377360  	0.019663 
3541.306176  	0.018892 
3543.234992  	0.018474 
3545.163808  	0.018966 
3547.092624  	0.019146 
3549.021440  	0.018355 
3550.950256  	0.017726 
3552.879072  	0.018053 
3554.807888  	0.018049 
3556.736704  	0.017499 
3558.665520  	0.017095 
3560.594336  	0.016988 
3562.523152  	0.016453 
3564.451968  	0.015830 
3566.380784  	0.016200 
3568.309600  	0.017100 
3570.238416  	0.016299 
3572.167232  	0.015237 
3574.096048  	0.014841 
3576.024864  	0.014706 
3577.953680  	0.014348 
3579.882496  	0.014098 
3581.811312  	0.013894 
3583.740128  	0.013134 
3585.668944  	0.012440 
3587.597760  	0.013369 
3589.526576  	0.013718 
3591.455392  	0.012124 
3593.384208  	0.011502 
3595.313024  	0.011584 
3597.241840  	0.011307 
3599.170656  	0.010791 
3601.099472  	0.010746 
3603.028288  	0.010534 
3604.957104  	0.009665 
3606.885920  	0.009023 
3608.814736  	0.009628 
3610.743552  	0.009002 
3612.672368  	0.008220 
3614.601184  	0.008209 
3616.530000  	0.007047 
3618.458816  	0.006781 
3620.387632  	0.007863 
3622.316448  	0.007536 
3624.245264  	0.006551 
3626.174080  	0.004892 
3628.102896  	0.004284 
3630.031712  	0.006853 
3631.960528  	0.006185 
3633.889344  	0.005435 
3635.818160  	0.004895 
3637.746976  	0.004446 
3639.675792  	0.004386 
3641.604608  	0.004146 
3643.533424  	0.003446 
3645.462240  	0.001426 
3647.391056  	0.000098 
3649.319872  	0.000880 
3651.248688  	0.003229 
3653.177504  	0.002513 
3655.106320  	0.000999 
3657.035136  	0.002019 
3658.963952  	0.002152 
3660.892768  	0.001417 
3662.821584  	0.000892 
3664.750400  	0.000503 
3666.679216  	-0.000649 
3668.608032  	-0.002018 
3670.536848  	-0.000834 
3672.465664  	-0.001182 
3674.394480  	-0.003090 
3676.323296  	-0.000113 
3678.252112  	0.000642 
3680.180928  	0.000444 
3682.109744  	0.000170 
3684.038560  	-0.000302 
3685.967376  	-0.001740 
3687.896192  	-0.002842 
3689.825008  	-0.001834 
3691.753824  	-0.000575 
3693.682640  	-0.000304 
3695.611456  	-0.000604 
3697.540272  	-0.000539 
3699.469088  	-0.001113 
3701.397904  	-0.000715 
3703.326720  	0.000290 
3705.255536  	-0.000160 
3707.184352  	-0.001273 
3709.113168  	-0.002210 
3711.041984  	-0.001893 
3712.970800  	-0.000023 
3714.899616  	0.000336 
3716.828432  	-0.000408 
3718.757248  	-0.000973 
3720.686064  	-0.001213 
3722.614880  	-0.000669 
3724.543696  	-0.000557 
3726.472512  	-0.000055 
3728.401328  	-0.000434 
3730.330144  	-0.002478 
3732.258960  	-0.003227 
3734.187776  	-0.002125 
3736.116592  	0.000277 
3738.045408  	0.000136 
3739.974224  	-0.000920 
3741.903040  	-0.002260 
3743.831856  	-0.002013 
3745.760672  	0.000297 
3747.689488  	-0.002549 
3749.618304  	-0.003652 
3751.547120  	-0.001812 
3753.475936  	0.000393 
3755.404752  	-0.000539 
3757.333568  	-0.001261 
3759.262384  	-0.000768 
3761.191200  	0.000369 
3763.120016  	-0.000297 
3765.048832  	-0.000597 
3766.977648  	-0.000439 
3768.906464  	-0.000729 
3770.835280  	0.000503 
3772.764096  	0.000668 
3774.692912  	0.000091 
3776.621728  	-0.000772 
3778.550544  	-0.001166 
3780.479360  	-0.000174 
3782.408176  	-0.000367 
3784.336992  	-0.000503 
3786.265808  	-0.000063 
3788.194624  	0.000054 
3790.123440  	0.000008 
3792.052256  	-0.000121 
3793.981072  	-0.000923 
3795.909888  	-0.001204 
3797.838704  	-0.001081 
3799.767520  	-0.002784 
3801.696336  	-0.001592 
3803.625152  	-0.000512 
3805.553968  	-0.001935 
3807.482784  	-0.000432 
3809.411600  	0.000336 
3811.340416  	-0.000145 
3813.269232  	-0.001377 
3815.198048  	-0.002430 
3817.126864  	-0.001147 
3819.055680  	-0.002623 
3820.984496  	-0.001973 
3822.913312  	0.000475 
3824.842128  	-0.000606 
3826.770944  	-0.000751 
3828.699760  	-0.000796 
3830.628576  	-0.001431 
3832.557392  	-0.001240 
3834.486208  	-0.001904 
3836.415024  	-0.002852 
3838.343840  	-0.001855 
3840.272656  	-0.000806 
3842.201472  	-0.000834 
3844.130288  	-0.000397 
3846.059104  	0.000084 
3847.987920  	-0.000589 
3849.916736  	-0.002165 
3851.845552  	-0.004210 
3853.774368  	-0.000946 
3855.703184  	0.001106 
3857.632000  	0.000056 
3859.560816  	-0.000920 
3861.489632  	-0.001481 
3863.418448  	-0.001453 
3865.347264  	-0.000470 
3867.276080  	-0.001294 
3869.204896  	-0.001527 
3871.133712  	0.000666 
3873.062528  	-0.000224 
3874.991344  	0.000308 
3876.920160  	-0.000336 
3878.848976  	-0.001303 
3880.777792  	-0.000148 
3882.706608  	-0.000157 
3884.635424  	-0.000911 
3886.564240  	0.000524 
3888.493056  	-0.000377 
3890.421872  	-0.000792 
3892.350688  	0.000344 
3894.279504  	0.000171 
3896.208320  	-0.000727 
3898.137136  	-0.001215 
3900.065952  	-0.000687 
3901.994768  	-0.000340 
3903.923584  	0.000536 
3905.852400  	0.001098 
3907.781216  	0.000336 
3909.710032  	-0.000129 
3911.638848  	-0.000155 
3913.567664  	-0.000321 
3915.496480  	-0.000261 
3917.425296  	0.000713 
3919.354112  	0.000793 
3921.282928  	0.000584 
3923.211744  	0.000197 
3925.140560  	0.000442 
3927.069376  	0.000042 
3928.998192  	-0.000417 
3930.927008  	0.000073 
3932.855824  	0.000986 
3934.784640  	0.000625 
3936.713456  	0.000285 
3938.642272  	0.000175 
3940.571088  	-0.000241 
3942.499904  	0.000358 
3944.428720  	0.000580 
3946.357536  	0.000016 
3948.286352  	0.000344 
3950.215168  	0.000277 
3952.143984  	-0.000083 
3954.072800  	-0.000195 
3956.001616  	-0.000065 
3957.930432  	0.000134 
3959.859248  	0.000222 
3961.788064  	0.000257 
3963.716880  	0.000266 
3965.645696  	0.000022 
3967.574512  	0.000030 
3969.503328  	0.000134 
3971.432144  	-0.000077 
3973.360960  	-0.000096 
3975.289776  	0.000291 
3977.218592  	0.000390 
3979.147408  	0.000419 
3981.076224  	0.000180 
3983.005040  	-0.000088 
3984.933856  	-0.000069 
3986.862672  	0.000062 
3988.791488  	0.000056 
3990.720304  	0.000179 
3992.649120  	0.000286 
3994.577936  	0.000188 
3996.506752  	0.000103 
3998.435568  	0.000173 
4000.364384  	0.000226 