##TITLE=No Description
##DATA TYPE=INFRARED SPECTRUM
##XUNITS=1/CM
##YUNITS=Abs
399.264912  	0.592782 
401.193728  	0.571847 
403.122544  	0.568150 
405.051360  	0.554151 
406.980176  	0.548876 
408.908992  	0.538975 
410.837808  	0.537658 
412.766624  	0.544021 
414.695440  	0.555009 
416.624256  	0.551522 
418.553072  	0.540566 
420.481888  	0.531585 
422.410704  	0.541646 
424.339520  	0.523986 
426.268336  	0.517495 
428.197152  	0.521296 
430.125968  	0.524974 
432.054784  	0.516959 
433.983600  	0.515576 
435.912416  	0.507744 
437.841232  	0.502922 
439.770048  	0.499508 
441.698864  	0.498217 
443.627680  	0.494675 
445.556496  	0.495134 
447.485312  	0.492396 
449.414128  	0.491280 
451.342944  	0.488045 
453.271760  	0.490575 
455.200576  	0.483316 
457.129392  	0.479722 
459.058208  	0.481118 
460.987024  	0.485837 
462.915840  	0.485910 
464.844656  	0.488702 
466.773472  	0.486944 
468.702288  	0.484335 
470.631104  	0.478321 
472.559920  	0.477516 
474.488736  	0.473126 
476.417552  	0.470182 
478.346368  	0.470042 
480.275184  	0.473854 
482.204000  	0.472475 
484.132816  	0.472275 
486.061632  	0.466627 
487.990448  	0.465174 
489.919264  	0.467075 
491.848080  	0.466110 
493.776896  	0.463306 
495.705712  	0.466302 
497.634528  	0.465384 
499.563344  	0.464333 
501.492160  	0.461089 
503.420976  	0.460740 
505.349792  	0.457966 
507.278608  	0.458694 
509.207424  	0.458128 
511.136240  	0.459291 
513.065056  	0.459126 
514.993872  	0.459536 
516.922688  	0.458046 
518.851504  	0.459423 
520.780320  	0.456959 
522.709136  	0.455498 
524.637952  	0.453677 
526.566768  	0.452421 
528.495584  	0.449442 
530.424400  	0.448212 
532.353216  	0.443744 
534.282032  	0.440352 
536.210848  	0.438701 
538.139664  	0.437903 
540.068480  	0.434311 
541.997296  	0.432010 
543.926112  	0.428007 
545.854928  	0.426635 
547.783744  	0.422906 
549.712560  	0.419523 
551.641376  	0.415345 
553.570192  	0.412552 
555.499008  	0.409756 
557.427824  	0.408209 
559.356640  	0.406271 
561.285456  	0.403948 
563.214272  	0.399550 
565.143088  	0.397442 
567.071904  	0.394616 
569.000720  	0.391884 
570.929536  	0.388638 
572.858352  	0.385844 
574.787168  	0.382845 
576.715984  	0.381149 
578.644800  	0.378495 
580.573616  	0.375592 
582.502432  	0.371646 
584.431248  	0.369319 
586.360064  	0.367108 
588.288880  	0.365653 
590.217696  	0.363816 
592.146512  	0.362352 
594.075328  	0.360090 
596.004144  	0.357915 
597.932960  	0.356089 
599.861776  	0.355265 
601.790592  	0.353895 
603.719408  	0.352529 
605.648224  	0.350866 
607.577040  	0.350322 
609.505856  	0.349532 
611.434672  	0.348295 
613.363488  	0.345900 
615.292304  	0.344128 
617.221120  	0.342144 
619.149936  	0.340566 
621.078752  	0.338314 
623.007568  	0.336155 
624.936384  	0.333577 
626.865200  	0.332664 
628.794016  	0.331675 
630.722832  	0.330101 
632.651648  	0.328149 
634.580464  	0.327508 
636.509280  	0.327282 
638.438096  	0.326295 
640.366912  	0.324564 
642.295728  	0.323102 
644.224544  	0.320691 
646.153360  	0.318438 
648.082176  	0.315851 
650.010992  	0.313352 
651.939808  	0.310032 
653.868624  	0.307485 
655.797440  	0.304135 
657.726256  	0.301279 
659.655072  	0.298106 
661.583888  	0.295173 
663.512704  	0.291666 
665.441520  	0.289223 
667.370336  	0.286772 
669.299152  	0.284393 
671.227968  	0.281604 
673.156784  	0.279173 
675.085600  	0.277172 
677.014416  	0.275553 
678.943232  	0.273734 
680.872048  	0.271749 
682.800864  	0.270097 
684.729680  	0.268699 
686.658496  	0.266907 
688.587312  	0.264832 
690.516128  	0.262621 
692.444944  	0.261554 
694.373760  	0.259817 
696.302576  	0.257722 
698.231392  	0.255727 
700.160208  	0.253637 
702.089024  	0.250655 
704.017840  	0.248829 
705.946656  	0.246855 
707.875472  	0.244381 
709.804288  	0.242181 
711.733104  	0.240510 
713.661920  	0.238773 
715.590736  	0.238010 
717.519552  	0.237304 
719.448368  	0.237338 
721.377184  	0.237222 
723.306000  	0.236821 
725.234816  	0.235697 
727.163632  	0.233980 
729.092448  	0.231707 
731.021264  	0.229934 
732.950080  	0.227858 
734.878896  	0.225576 
736.807712  	0.223521 
738.736528  	0.221704 
740.665344  	0.219901 
742.594160  	0.218676 
744.522976  	0.217198 
746.451792  	0.215886 
748.380608  	0.214472 
750.309424  	0.213290 
752.238240  	0.212362 
754.167056  	0.211604 
756.095872  	0.210270 
758.024688  	0.208817 
759.953504  	0.207578 
761.882320  	0.207117 
763.811136  	0.206657 
765.739952  	0.205872 
767.668768  	0.204675 
769.597584  	0.203078 
771.526400  	0.202152 
773.455216  	0.202527 
775.384032  	0.203290 
777.312848  	0.204655 
779.241664  	0.206161 
781.170480  	0.206139 
783.099296  	0.203758 
785.028112  	0.200053 
786.956928  	0.195708 
788.885744  	0.192207 
790.814560  	0.189238 
792.743376  	0.186699 
794.672192  	0.184628 
796.601008  	0.183379 
798.529824  	0.181815 
800.458640  	0.179489 
802.387456  	0.176825 
804.316272  	0.175074 
806.245088  	0.174030 
808.173904  	0.173087 
810.102720  	0.172298 
812.031536  	0.171344 
813.960352  	0.170191 
815.889168  	0.169448 
817.817984  	0.168835 
819.746800  	0.167926 
821.675616  	0.166760 
823.604432  	0.165886 
825.533248  	0.164833 
827.462064  	0.163539 
829.390880  	0.162119 
831.319696  	0.160815 
833.248512  	0.159572 
835.177328  	0.158269 
837.106144  	0.156295 
839.034960  	0.153883 
840.963776  	0.151627 
842.892592  	0.149543 
844.821408  	0.147310 
846.750224  	0.145111 
848.679040  	0.143120 
850.607856  	0.141172 
852.536672  	0.139727 
854.465488  	0.138104 
856.394304  	0.136873 
858.323120  	0.135639 
860.251936  	0.134002 
862.180752  	0.132411 
864.109568  	0.131037 
866.038384  	0.129705 
867.967200  	0.128325 
869.896016  	0.126982 
871.824832  	0.125648 
873.753648  	0.124709 
875.682464  	0.124353 
877.611280  	0.124151 
879.540096  	0.123802 
881.468912  	0.123961 
883.397728  	0.124173 
885.326544  	0.124057 
887.255360  	0.123502 
889.184176  	0.122600 
891.112992  	0.121472 
893.041808  	0.120150 
894.970624  	0.118897 
896.899440  	0.117084 
898.828256  	0.114548 
900.757072  	0.112271 
902.685888  	0.110276 
904.614704  	0.108804 
906.543520  	0.108184 
908.472336  	0.108375 
910.401152  	0.109114 
912.329968  	0.110407 
914.258784  	0.111757 
916.187600  	0.113056 
918.116416  	0.113935 
920.045232  	0.114280 
921.974048  	0.113746 
923.902864  	0.112704 
925.831680  	0.111662 
927.760496  	0.110695 
929.689312  	0.109907 
931.618128  	0.109487 
933.546944  	0.109130 
935.475760  	0.108835 
937.404576  	0.108558 
939.333392  	0.108650 
941.262208  	0.109319 
943.191024  	0.110442 
945.119840  	0.112214 
947.048656  	0.114322 
948.977472  	0.117106 
950.906288  	0.120422 
952.835104  	0.123847 
954.763920  	0.127317 
956.692736  	0.130605 
958.621552  	0.133412 
960.550368  	0.135208 
962.479184  	0.136034 
964.408000  	0.135114 
966.336816  	0.132804 
968.265632  	0.128987 
970.194448  	0.124346 
972.123264  	0.118910 
974.052080  	0.112961 
975.980896  	0.107162 
977.909712  	0.101654 
979.838528  	0.097005 
981.767344  	0.093132 
983.696160  	0.090388 
985.624976  	0.088796 
987.553792  	0.088723 
989.482608  	0.089661 
991.411424  	0.091530 
993.340240  	0.094607 
995.269056  	0.098622 
997.197872  	0.102844 
999.126688  	0.106786 
1001.055504  	0.110855 
1002.984320  	0.114828 
1004.913136  	0.118618 
1006.841952  	0.121873 
1008.770768  	0.124874 
1010.699584  	0.127105 
1012.628400  	0.128427 
1014.557216  	0.129362 
1016.486032  	0.129855 
1018.414848  	0.130067 
1020.343664  	0.130522 
1022.272480  	0.130865 
1024.201296  	0.130760 
1026.130112  	0.130355 
1028.058928  	0.130332 
1029.987744  	0.130831 
1031.916560  	0.131785 
1033.845376  	0.133168 
1035.774192  	0.134857 
1037.703008  	0.136546 
1039.631824  	0.139228 
1041.560640  	0.142921 
1043.489456  	0.148074 
1045.418272  	0.154399 
1047.347088  	0.161945 
1049.275904  	0.170376 
1051.204720  	0.179227 
1053.133536  	0.186847 
1055.062352  	0.193149 
1056.991168  	0.197817 
1058.919984  	0.200750 
1060.848800  	0.201944 
1062.777616  	0.202291 
1064.706432  	0.200725 
1066.635248  	0.198310 
1068.564064  	0.195583 
1070.492880  	0.192504 
1072.421696  	0.188525 
1074.350512  	0.185044 
1076.279328  	0.181948 
1078.208144  	0.179389 
1080.136960  	0.177229 
1082.065776  	0.175231 
1083.994592  	0.173066 
1085.923408  	0.171300 
1087.852224  	0.169032 
1089.781040  	0.166536 
1091.709856  	0.163060 
1093.638672  	0.159076 
1095.567488  	0.154033 
1097.496304  	0.148587 
1099.425120  	0.142708 
1101.353936  	0.136669 
1103.282752  	0.130528 
1105.211568  	0.124097 
1107.140384  	0.117871 
1109.069200  	0.111739 
1110.998016  	0.105751 
1112.926832  	0.100407 
1114.855648  	0.095390 
1116.784464  	0.090095 
1118.713280  	0.085483 
1120.642096  	0.081567 
1122.570912  	0.077524 
1124.499728  	0.073733 
1126.428544  	0.070079 
1128.357360  	0.066463 
1130.286176  	0.063258 
1132.214992  	0.060571 
1134.143808  	0.058206 
1136.072624  	0.055982 
1138.001440  	0.053731 
1139.930256  	0.051730 
1141.859072  	0.050050 
1143.787888  	0.048290 
1145.716704  	0.046915 
1147.645520  	0.045979 
1149.574336  	0.045169 
1151.503152  	0.044500 
1153.431968  	0.044188 
1155.360784  	0.044196 
1157.289600  	0.044502 
1159.218416  	0.044923 
1161.147232  	0.045386 
1163.076048  	0.045850 
1165.004864  	0.046720 
1166.933680  	0.047582 
1168.862496  	0.048603 
1170.791312  	0.050004 
1172.720128  	0.051318 
1174.648944  	0.052443 
1176.577760  	0.053913 
1178.506576  	0.055483 
1180.435392  	0.056892 
1182.364208  	0.058395 
1184.293024  	0.060069 
1186.221840  	0.061864 
1188.150656  	0.063829 
1190.079472  	0.066003 
1192.008288  	0.068382 
1193.937104  	0.071154 
1195.865920  	0.074343 
1197.794736  	0.077657 
1199.723552  	0.081503 
1201.652368  	0.085472 
1203.581184  	0.089407 
1205.510000  	0.093197 
1207.438816  	0.097052 
1209.367632  	0.100728 
1211.296448  	0.104220 
1213.225264  	0.107484 
1215.154080  	0.110230 
1217.082896  	0.112615 
1219.011712  	0.114397 
1220.940528  	0.115986 
1222.869344  	0.117203 
1224.798160  	0.118014 
1226.726976  	0.118499 
1228.655792  	0.118835 
1230.584608  	0.118796 
1232.513424  	0.118324 
1234.442240  	0.117006 
1236.371056  	0.115243 
1238.299872  	0.113027 
1240.228688  	0.110298 
1242.157504  	0.107068 
1244.086320  	0.103400 
1246.015136  	0.099301 
1247.943952  	0.095282 
1249.872768  	0.091179 
1251.801584  	0.087132 
1253.730400  	0.083139 
1255.659216  	0.079268 
1257.588032  	0.075441 
1259.516848  	0.071947 
1261.445664  	0.068618 
1263.374480  	0.065617 
1265.303296  	0.062972 
1267.232112  	0.060724 
1269.160928  	0.059120 
1271.089744  	0.058084 
1273.018560  	0.057633 
1274.947376  	0.057488 
1276.876192  	0.057363 
1278.805008  	0.057069 
1280.733824  	0.056041 
1282.662640  	0.054115 
1284.591456  	0.051615 
1286.520272  	0.049086 
1288.449088  	0.046920 
1290.377904  	0.045136 
1292.306720  	0.043847 
1294.235536  	0.042316 
1296.164352  	0.040195 
1298.093168  	0.037800 
1300.021984  	0.035510 
1301.950800  	0.033466 
1303.879616  	0.031779 
1305.808432  	0.030432 
1307.737248  	0.029521 
1309.666064  	0.028752 
1311.594880  	0.028486 
1313.523696  	0.028408 
1315.452512  	0.028445 
1317.381328  	0.028744 
1319.310144  	0.029119 
1321.238960  	0.029469 
1323.167776  	0.029918 
1325.096592  	0.030226 
1327.025408  	0.030318 
1328.954224  	0.029952 
1330.883040  	0.029363 
1332.811856  	0.028606 
1334.740672  	0.028070 
1336.669488  	0.027713 
1338.598304  	0.027616 
1340.527120  	0.027222 
1342.455936  	0.026521 
1344.384752  	0.026307 
1346.313568  	0.026735 
1348.242384  	0.027507 
1350.171200  	0.028654 
1352.100016  	0.029919 
1354.028832  	0.031117 
1355.957648  	0.032393 
1357.886464  	0.033744 
1359.815280  	0.034882 
1361.744096  	0.036125 
1363.672912  	0.037151 
1365.601728  	0.037402 
1367.530544  	0.037602 
1369.459360  	0.037739 
1371.388176  	0.037231 
1373.316992  	0.036464 
1375.245808  	0.035633 
1377.174624  	0.034628 
1379.103440  	0.033449 
1381.032256  	0.032321 
1382.961072  	0.031409 
1384.889888  	0.030780 
1386.818704  	0.030456 
1388.747520  	0.029796 
1390.676336  	0.028742 
1392.605152  	0.027751 
1394.533968  	0.027462 
1396.462784  	0.027992 
1398.391600  	0.028149 
1400.320416  	0.028549 
1402.249232  	0.028856 
1404.178048  	0.029721 
1406.106864  	0.030736 
1408.035680  	0.031615 
1409.964496  	0.032641 
1411.893312  	0.033942 
1413.822128  	0.034996 
1415.750944  	0.036018 
1417.679760  	0.036330 
1419.608576  	0.036203 
1421.537392  	0.035910 
1423.466208  	0.035435 
1425.395024  	0.034747 
1427.323840  	0.033623 
1429.252656  	0.032473 
1431.181472  	0.031813 
1433.110288  	0.031466 
1435.039104  	0.031140 
1436.967920  	0.031580 
1438.896736  	0.031939 
1440.825552  	0.031958 
1442.754368  	0.032144 
1444.683184  	0.031934 
1446.612000  	0.031750 
1448.540816  	0.031989 
1450.469632  	0.032235 
1452.398448  	0.032286 
1454.327264  	0.032017 
1456.256080  	0.031413 
1458.184896  	0.032022 
1460.113712  	0.032783 
1462.042528  	0.032907 
1463.971344  	0.032680 
1465.900160  	0.034046 
1467.828976  	0.035622 
1469.757792  	0.036750 
1471.686608  	0.038082 
1473.615424  	0.041335 
1475.544240  	0.043563 
1477.473056  	0.045059 
1479.401872  	0.045372 
1481.330688  	0.045526 
1483.259504  	0.045359 
1485.188320  	0.044462 
1487.117136  	0.043004 
1489.045952  	0.041775 
1490.974768  	0.040178 
1492.903584  	0.038171 
1494.832400  	0.035687 
1496.761216  	0.033434 
1498.690032  	0.032029 
1500.618848  	0.031350 
1502.547664  	0.030101 
1504.476480  	0.027728 
1506.405296  	0.026355 
1508.334112  	0.028533 
1510.262928  	0.028277 
1512.191744  	0.027298 
1514.120560  	0.026383 
1516.049376  	0.025889 
1517.978192  	0.025772 
1519.907008  	0.025631 
1521.835824  	0.026690 
1523.764640  	0.028746 
1525.693456  	0.030591 
1527.622272  	0.032373 
1529.551088  	0.033337 
1531.479904  	0.033533 
1533.408720  	0.033199 
1535.337536  	0.033264 
1537.266352  	0.031234 
1539.195168  	0.027692 
1541.123984  	0.026956 
1543.052800  	0.028310 
1544.981616  	0.028657 
1546.910432  	0.028094 
1548.839248  	0.027528 
1550.768064  	0.027633 
1552.696880  	0.027039 
1554.625696  	0.027040 
1556.554512  	0.025753 
1558.483328  	0.024156 
1560.412144  	0.028759 
1562.340960  	0.031110 
1564.269776  	0.032055 
1566.198592  	0.033958 
1568.127408  	0.035110 
1570.056224  	0.038046 
1571.985040  	0.040850 
1573.913856  	0.041390 
1575.842672  	0.041596 
1577.771488  	0.043867 
1579.700304  	0.044309 
1581.629120  	0.044386 
1583.557936  	0.044720 
1585.486752  	0.045852 
1587.415568  	0.047496 
1589.344384  	0.050003 
1591.273200  	0.052715 
1593.202016  	0.055804 
1595.130832  	0.058755 
1597.059648  	0.061648 
1598.988464  	0.063761 
1600.917280  	0.065509 
1602.846096  	0.066430 
1604.774912  	0.066915 
1606.703728  	0.066647 
1608.632544  	0.066413 
1610.561360  	0.066067 
1612.490176  	0.066018 
1614.418992  	0.065173 
1616.347808  	0.065454 
1618.276624  	0.068582 
1620.205440  	0.071149 
1622.134256  	0.073022 
1624.063072  	0.077464 
1625.991888  	0.081362 
1627.920704  	0.085687 
1629.849520  	0.090764 
1631.778336  	0.094486 
1633.707152  	0.096329 
1635.635968  	0.100278 
1637.564784  	0.106375 
1639.493600  	0.109489 
1641.422416  	0.111700 
1643.351232  	0.112702 
1645.280048  	0.112307 
1647.208864  	0.113891 
1649.137680  	0.115236 
1651.066496  	0.113066 
1652.995312  	0.111387 
1654.924128  	0.115462 
1656.852944  	0.114984 
1658.781760  	0.114026 
1660.710576  	0.112722 
1662.639392  	0.112122 
1664.568208  	0.112467 
1666.497024  	0.111672 
1668.425840  	0.110212 
1670.354656  	0.110542 
1672.283472  	0.110934 
1674.212288  	0.110364 
1676.141104  	0.111975 
1678.069920  	0.113058 
1679.998736  	0.113456 
1681.927552  	0.112664 
1683.856368  	0.111991 
1685.785184  	0.115391 
1687.714000  	0.115346 
1689.642816  	0.114658 
1691.571632  	0.113424 
1693.500448  	0.111078 
1695.429264  	0.107975 
1697.358080  	0.105807 
1699.286896  	0.102353 
1701.215712  	0.100794 
1703.144528  	0.098248 
1705.073344  	0.094398 
1707.002160  	0.091196 
1708.930976  	0.088178 
1710.859792  	0.084454 
1712.788608  	0.080120 
1714.717424  	0.075557 
1716.646240  	0.070678 
1718.575056  	0.066702 
1720.503872  	0.063230 
1722.432688  	0.059342 
1724.361504  	0.054997 
1726.290320  	0.050904 
1728.219136  	0.046908 
1730.147952  	0.043266 
1732.076768  	0.039260 
1734.005584  	0.035099 
1735.934400  	0.031914 
1737.863216  	0.029094 
1739.792032  	0.025432 
1741.720848  	0.023170 
1743.649664  	0.021227 
1745.578480  	0.019026 
1747.507296  	0.016592 
1749.436112  	0.015219 
1751.364928  	0.014551 
1753.293744  	0.013721 
1755.222560  	0.012300 
1757.151376  	0.011664 
1759.080192  	0.010951 
1761.009008  	0.010276 
1762.937824  	0.010007 
1764.866640  	0.009805 
1766.795456  	0.009276 
1768.724272  	0.009055 
1770.653088  	0.007330 
1772.581904  	0.006819 
1774.510720  	0.007744 
1776.439536  	0.008253 
1778.368352  	0.008052 
1780.297168  	0.007991 
1782.225984  	0.007869 
1784.154800  	0.007742 
1786.083616  	0.007716 
1788.012432  	0.007499 
1789.941248  	0.006806 
1791.870064  	0.006515 
1793.798880  	0.006774 
1795.727696  	0.007176 
1797.656512  	0.006718 
1799.585328  	0.006305 
1801.514144  	0.006538 
1803.442960  	0.006566 
1805.371776  	0.006308 
1807.300592  	0.006166 
1809.229408  	0.005630 
1811.158224  	0.005702 
1813.087040  	0.005673 
1815.015856  	0.005465 
1816.944672  	0.005482 
1818.873488  	0.005671 
1820.802304  	0.005641 
1822.731120  	0.005601 
1824.659936  	0.005300 
1826.588752  	0.005486 
1828.517568  	0.005001 
1830.446384  	0.005387 
1832.375200  	0.005749 
1834.304016  	0.005491 
1836.232832  	0.005334 
1838.161648  	0.005658 
1840.090464  	0.005567 
1842.019280  	0.005058 
1843.948096  	0.004329 
1845.876912  	0.005126 
1847.805728  	0.005596 
1849.734544  	0.005571 
1851.663360  	0.005383 
1853.592176  	0.005411 
1855.520992  	0.005297 
1857.449808  	0.005658 
1859.378624  	0.005600 
1861.307440  	0.005526 
1863.236256  	0.005172 
1865.165072  	0.005007 
1867.093888  	0.004701 
1869.022704  	0.005077 
1870.951520  	0.005249 
1872.880336  	0.005263 
1874.809152  	0.004918 
1876.737968  	0.004886 
1878.666784  	0.004617 
1880.595600  	0.004677 
1882.524416  	0.004839 
1884.453232  	0.004841 
1886.382048  	0.004713 
1888.310864  	0.004718 
1890.239680  	0.005088 
1892.168496  	0.005261 
1894.097312  	0.004655 
1896.026128  	0.004884 
1897.954944  	0.004864 
1899.883760  	0.004749 
1901.812576  	0.004550 
1903.741392  	0.004542 
1905.670208  	0.004363 
1907.599024  	0.004456 
1909.527840  	0.004434 
1911.456656  	0.004673 
1913.385472  	0.004805 
1915.314288  	0.004770 
1917.243104  	0.004593 
1919.171920  	0.005014 
1921.100736  	0.005090 
1923.029552  	0.005356 
1924.958368  	0.004681 
1926.887184  	0.004744 
1928.816000  	0.004534 
1930.744816  	0.004231 
1932.673632  	0.003801 
1934.602448  	0.004176 
1936.531264  	0.004633 
1938.460080  	0.004543 
1940.388896  	0.004027 
1942.317712  	0.003922 
1944.246528  	0.003887 
1946.175344  	0.004418 
1948.104160  	0.003714 
1950.032976  	0.003547 
1951.961792  	0.003879 
1953.890608  	0.004248 
1955.819424  	0.003954 
1957.748240  	0.004436 
1959.677056  	0.004786 
1961.605872  	0.004663 
1963.534688  	0.004359 
1965.463504  	0.004900 
1967.392320  	0.004134 
1969.321136  	0.003475 
1971.249952  	0.003875 
1973.178768  	0.004600 
1975.107584  	0.003875 
1977.036400  	0.003643 
1978.965216  	0.004963 
1980.894032  	0.005804 
1982.822848  	0.005058 
1984.751664  	0.004816 
1986.680480  	0.004660 
1988.609296  	0.004792 
1990.538112  	0.004742 
1992.466928  	0.005265 
1994.395744  	0.004695 
1996.324560  	0.004706 
1998.253376  	0.004353 
2000.182192  	0.003807 
2002.111008  	0.003787 
2004.039824  	0.004299 
2005.968640  	0.003473 
2007.897456  	0.003977 
2009.826272  	0.003659 
2011.755088  	0.003061 
2013.683904  	0.004575 
2015.612720  	0.005372 
2017.541536  	0.003786 
2019.470352  	0.003192 
2021.399168  	0.003189 
2023.327984  	0.004194 
2025.256800  	0.003638 
2027.185616  	0.002634 
2029.114432  	0.002546 
2031.043248  	0.004619 
2032.972064  	0.004975 
2034.900880  	0.005767 
2036.829696  	0.005509 
2038.758512  	0.005711 
2040.687328  	0.005212 
2042.616144  	0.005305 
2044.544960  	0.005818 
2046.473776  	0.006298 
2048.402592  	0.005622 
2050.331408  	0.005683 
2052.260224  	0.005117 
2054.189040  	0.005111 
2056.117856  	0.005104 
2058.046672  	0.005226 
2059.975488  	0.004793 
2061.904304  	0.004622 
2063.833120  	0.005428 
2065.761936  	0.005947 
2067.690752  	0.005263 
2069.619568  	0.004933 
2071.548384  	0.004257 
2073.477200  	0.004097 
2075.406016  	0.004672 
2077.334832  	0.005151 
2079.263648  	0.004855 
2081.192464  	0.005177 
2083.121280  	0.005723 
2085.050096  	0.005667 
2086.978912  	0.005472 
2088.907728  	0.005405 
2090.836544  	0.004678 
2092.765360  	0.004520 
2094.694176  	0.004826 
2096.622992  	0.004643 
2098.551808  	0.004108 
2100.480624  	0.004394 
2102.409440  	0.004456 
2104.338256  	0.005136 
2106.267072  	0.005333 
2108.195888  	0.005213 
2110.124704  	0.005501 
2112.053520  	0.006308 
2113.982336  	0.006361 
2115.911152  	0.005916 
2117.839968  	0.005297 
2119.768784  	0.004575 
2121.697600  	0.004146 
2123.626416  	0.004084 
2125.555232  	0.004208 
2127.484048  	0.004511 
2129.412864  	0.004348 
2131.341680  	0.003496 
2133.270496  	0.003411 
2135.199312  	0.003697 
2137.128128  	0.003960 
2139.056944  	0.004250 
2140.985760  	0.003282 
2142.914576  	0.003412 
2144.843392  	0.003550 
2146.772208  	0.004041 
2148.701024  	0.004220 
2150.629840  	0.004500 
2152.558656  	0.003258 
2154.487472  	0.001516 
2156.416288  	0.000628 
2158.345104  	0.003171 
2160.273920  	0.005270 
2162.202736  	0.005778 
2164.131552  	0.005070 
2166.060368  	0.005956 
2167.989184  	0.004998 
2169.918000  	0.003969 
2171.846816  	0.004239 
2173.775632  	0.005349 
2175.704448  	0.005920 
2177.633264  	0.006423 
2179.562080  	0.005077 
2181.490896  	0.003600 
2183.419712  	0.003557 
2185.348528  	0.004487 
2187.277344  	0.005072 
2189.206160  	0.005175 
2191.134976  	0.005692 
2193.063792  	0.006271 
2194.992608  	0.006079 
2196.921424  	0.005225 
2198.850240  	0.005015 
2200.779056  	0.005222 
2202.707872  	0.005505 
2204.636688  	0.005759 
2206.565504  	0.005832 
2208.494320  	0.006058 
2210.423136  	0.005193 
2212.351952  	0.005202 
2214.280768  	0.005924 
2216.209584  	0.005542 
2218.138400  	0.005271 
2220.067216  	0.005077 
2221.996032  	0.004768 
2223.924848  	0.004402 
2225.853664  	0.004528 
2227.782480  	0.005368 
2229.711296  	0.005716 
2231.640112  	0.005688 
2233.568928  	0.005609 
2235.497744  	0.005712 
2237.426560  	0.005569 
2239.355376  	0.004981 
2241.284192  	0.004764 
2243.213008  	0.005177 
2245.141824  	0.005182 
2247.070640  	0.004814 
2248.999456  	0.004671 
2250.928272  	0.005282 
2252.857088  	0.005467 
2254.785904  	0.005216 
2256.714720  	0.005710 
2258.643536  	0.006332 
2260.572352  	0.006145 
2262.501168  	0.005978 
2264.429984  	0.005863 
2266.358800  	0.006126 
2268.287616  	0.006040 
2270.216432  	0.005846 
2272.145248  	0.005753 
2274.074064  	0.006003 
2276.002880  	0.006075 
2277.931696  	0.006545 
2279.860512  	0.007070 
2281.789328  	0.007327 
2283.718144  	0.007011 
2285.646960  	0.007137 
2287.575776  	0.007456 
2289.504592  	0.007041 
2291.433408  	0.006571 
2293.362224  	0.006563 
2295.291040  	0.006810 
2297.219856  	0.007294 
2299.148672  	0.007375 
2301.077488  	0.007305 
2303.006304  	0.007620 
2304.935120  	0.007854 
2306.863936  	0.007708 
2308.792752  	0.007701 
2310.721568  	0.007884 
2312.650384  	0.007914 
2314.579200  	0.007688 
2316.508016  	0.007480 
2318.436832  	0.007198 
2320.365648  	0.007094 
2322.294464  	0.006981 
2324.223280  	0.006153 
2326.152096  	0.004660 
2328.080912  	0.003935 
2330.009728  	0.003435 
2331.938544  	0.002718 
2333.867360  	0.001869 
2335.796176  	0.001366 
2337.724992  	0.000903 
2339.653808  	0.000892 
2341.582624  	0.001345 
2343.511440  	0.002506 
2345.440256  	0.003772 
2347.369072  	0.004983 
2349.297888  	0.004924 
2351.226704  	0.003620 
2353.155520  	0.002294 
2355.084336  	0.000965 
2357.013152  	-0.000148 
2358.941968  	-0.000938 
2360.870784  	-0.001146 
2362.799600  	-0.000554 
2364.728416  	0.000003 
2366.657232  	0.000920 
2368.586048  	0.002108 
2370.514864  	0.003518 
2372.443680  	0.004643 
2374.372496  	0.005824 
2376.301312  	0.006678 
2378.230128  	0.007486 
2380.158944  	0.007649 
2382.087760  	0.007293 
2384.016576  	0.006925 
2385.945392  	0.006704 
2387.874208  	0.006258 
2389.803024  	0.006006 
2391.731840  	0.005951 
2393.660656  	0.005918 
2395.589472  	0.005967 
2397.518288  	0.006191 
2399.447104  	0.006165 
2401.375920  	0.005972 
2403.304736  	0.005844 
2405.233552  	0.005972 
2407.162368  	0.006257 
2409.091184  	0.006205 
2411.020000  	0.006135 
2412.948816  	0.006443 
2414.877632  	0.006459 
2416.806448  	0.006426 
2418.735264  	0.006572 
2420.664080  	0.006587 
2422.592896  	0.006397 
2424.521712  	0.006355 
2426.450528  	0.006412 
2428.379344  	0.006341 
2430.308160  	0.006504 
2432.236976  	0.006782 
2434.165792  	0.006872 
2436.094608  	0.007108 
2438.023424  	0.007388 
2439.952240  	0.007419 
2441.881056  	0.007410 
2443.809872  	0.007295 
2445.738688  	0.007309 
2447.667504  	0.007319 
2449.596320  	0.007246 
2451.525136  	0.007329 
2453.453952  	0.007314 
2455.382768  	0.007639 
2457.311584  	0.007851 
2459.240400  	0.007650 
2461.169216  	0.007512 
2463.098032  	0.007469 
2465.026848  	0.007430 
2466.955664  	0.007412 
2468.884480  	0.007252 
2470.813296  	0.007127 
2472.742112  	0.007173 
2474.670928  	0.007209 
2476.599744  	0.007289 
2478.528560  	0.007388 
2480.457376  	0.007504 
2482.386192  	0.007524 
2484.315008  	0.007503 
2486.243824  	0.007564 
2488.172640  	0.007506 
2490.101456  	0.007622 
2492.030272  	0.007948 
2493.959088  	0.007800 
2495.887904  	0.007387 
2497.816720  	0.007618 
2499.745536  	0.007868 
2501.674352  	0.008050 
2503.603168  	0.008055 
2505.531984  	0.007946 
2507.460800  	0.007984 
2509.389616  	0.007952 
2511.318432  	0.007683 
2513.247248  	0.007756 
2515.176064  	0.007935 
2517.104880  	0.008244 
2519.033696  	0.008373 
2520.962512  	0.008382 
2522.891328  	0.008595 
2524.820144  	0.008676 
2526.748960  	0.008548 
2528.677776  	0.008633 
2530.606592  	0.008608 
2532.535408  	0.008672 
2534.464224  	0.008846 
2536.393040  	0.008771 
2538.321856  	0.008710 
2540.250672  	0.008813 
2542.179488  	0.008791 
2544.108304  	0.008901 
2546.037120  	0.008875 
2547.965936  	0.009130 
2549.894752  	0.009316 
2551.823568  	0.009269 
2553.752384  	0.009170 
2555.681200  	0.009157 
2557.610016  	0.009365 
2559.538832  	0.009461 
2561.467648  	0.009284 
2563.396464  	0.009547 
2565.325280  	0.009831 
2567.254096  	0.009764 
2569.182912  	0.009630 
2571.111728  	0.009583 
2573.040544  	0.009480 
2574.969360  	0.009458 
2576.898176  	0.009662 
2578.826992  	0.009930 
2580.755808  	0.009921 
2582.684624  	0.009878 
2584.613440  	0.009826 
2586.542256  	0.009983 
2588.471072  	0.010181 
2590.399888  	0.010130 
2592.328704  	0.010225 
2594.257520  	0.010463 
2596.186336  	0.010630 
2598.115152  	0.010559 
2600.043968  	0.010421 
2601.972784  	0.010523 
2603.901600  	0.010685 
2605.830416  	0.010718 
2607.759232  	0.010545 
2609.688048  	0.010650 
2611.616864  	0.010843 
2613.545680  	0.010996 
2615.474496  	0.011050 
2617.403312  	0.011127 
2619.332128  	0.011215 
2621.260944  	0.011179 
2623.189760  	0.011117 
2625.118576  	0.011234 
2627.047392  	0.011403 
2628.976208  	0.011649 
2630.905024  	0.011707 
2632.833840  	0.011862 
2634.762656  	0.011918 
2636.691472  	0.011837 
2638.620288  	0.011800 
2640.549104  	0.011888 
2642.477920  	0.012021 
2644.406736  	0.012076 
2646.335552  	0.012243 
2648.264368  	0.012429 
2650.193184  	0.012547 
2652.122000  	0.012639 
2654.050816  	0.012711 
2655.979632  	0.012559 
2657.908448  	0.012565 
2659.837264  	0.012671 
2661.766080  	0.012656 
2663.694896  	0.012600 
2665.623712  	0.012502 
2667.552528  	0.012463 
2669.481344  	0.012621 
2671.410160  	0.012895 
2673.338976  	0.012995 
2675.267792  	0.013030 
2677.196608  	0.013165 
2679.125424  	0.013341 
2681.054240  	0.013218 
2682.983056  	0.013167 
2684.911872  	0.013351 
2686.840688  	0.013485 
2688.769504  	0.013518 
2690.698320  	0.013505 
2692.627136  	0.013561 
2694.555952  	0.013647 
2696.484768  	0.013587 
2698.413584  	0.013560 
2700.342400  	0.013601 
2702.271216  	0.013710 
2704.200032  	0.013925 
2706.128848  	0.014044 
2708.057664  	0.014116 
2709.986480  	0.014167 
2711.915296  	0.014186 
2713.844112  	0.014256 
2715.772928  	0.014347 
2717.701744  	0.014427 
2719.630560  	0.014425 
2721.559376  	0.014470 
2723.488192  	0.014600 
2725.417008  	0.014786 
2727.345824  	0.014890 
2729.274640  	0.014937 
2731.203456  	0.014912 
2733.132272  	0.014987 
2735.061088  	0.015151 
2736.989904  	0.015264 
2738.918720  	0.015187 
2740.847536  	0.015083 
2742.776352  	0.015177 
2744.705168  	0.015429 
2746.633984  	0.015543 
2748.562800  	0.015562 
2750.491616  	0.015606 
2752.420432  	0.015603 
2754.349248  	0.015602 
2756.278064  	0.015658 
2758.206880  	0.015694 
2760.135696  	0.015865 
2762.064512  	0.015867 
2763.993328  	0.015801 
2765.922144  	0.015797 
2767.850960  	0.015859 
2769.779776  	0.015913 
2771.708592  	0.016003 
2773.637408  	0.016035 
2775.566224  	0.016028 
2777.495040  	0.015931 
2779.423856  	0.015957 
2781.352672  	0.016158 
2783.281488  	0.016368 
2785.210304  	0.016416 
2787.139120  	0.016528 
2789.067936  	0.016718 
2790.996752  	0.016771 
2792.925568  	0.016893 
2794.854384  	0.017048 
2796.783200  	0.016961 
2798.712016  	0.016841 
2800.640832  	0.016931 
2802.569648  	0.017117 
2804.498464  	0.017230 
2806.427280  	0.017294 
2808.356096  	0.017234 
2810.284912  	0.017305 
2812.213728  	0.017346 
2814.142544  	0.017407 
2816.071360  	0.017657 
2818.000176  	0.017701 
2819.928992  	0.017492 
2821.857808  	0.017447 
2823.786624  	0.017624 
2825.715440  	0.017749 
2827.644256  	0.017659 
2829.573072  	0.017654 
2831.501888  	0.017622 
2833.430704  	0.017580 
2835.359520  	0.017613 
2837.288336  	0.017526 
2839.217152  	0.017458 
2841.145968  	0.017399 
2843.074784  	0.017193 
2845.003600  	0.017127 
2846.932416  	0.017301 
2848.861232  	0.017429 
2850.790048  	0.017327 
2852.718864  	0.017282 
2854.647680  	0.017342 
2856.576496  	0.017501 
2858.505312  	0.017539 
2860.434128  	0.017499 
2862.362944  	0.017458 
2864.291760  	0.017352 
2866.220576  	0.017370 
2868.149392  	0.017780 
2870.078208  	0.018073 
2872.007024  	0.018106 
2873.935840  	0.018265 
2875.864656  	0.018585 
2877.793472  	0.018932 
2879.722288  	0.019027 
2881.651104  	0.019009 
2883.579920  	0.019130 
2885.508736  	0.019269 
2887.437552  	0.019354 
2889.366368  	0.019482 
2891.295184  	0.019549 
2893.224000  	0.019568 
2895.152816  	0.019733 
2897.081632  	0.019626 
2899.010448  	0.019436 
2900.939264  	0.019433 
2902.868080  	0.019604 
2904.796896  	0.019863 
2906.725712  	0.019979 
2908.654528  	0.019935 
2910.583344  	0.020107 
2912.512160  	0.020639 
2914.440976  	0.021020 
2916.369792  	0.021171 
2918.298608  	0.021313 
2920.227424  	0.021676 
2922.156240  	0.022201 
2924.085056  	0.022601 
2926.013872  	0.023094 
2927.942688  	0.023609 
2929.871504  	0.024020 
2931.800320  	0.024316 
2933.729136  	0.024570 
2935.657952  	0.024713 
2937.586768  	0.024937 
2939.515584  	0.025178 
2941.444400  	0.025424 
2943.373216  	0.025619 
2945.302032  	0.025750 
2947.230848  	0.025878 
2949.159664  	0.025837 
2951.088480  	0.025747 
2953.017296  	0.025739 
2954.946112  	0.025609 
2956.874928  	0.025481 
2958.803744  	0.025162 
2960.732560  	0.024849 
2962.661376  	0.024706 
2964.590192  	0.024506 
2966.519008  	0.024433 
2968.447824  	0.024264 
2970.376640  	0.024115 
2972.305456  	0.023817 
2974.234272  	0.023666 
2976.163088  	0.023718 
2978.091904  	0.023690 
2980.020720  	0.023653 
2981.949536  	0.023636 
2983.878352  	0.023349 
2985.807168  	0.023076 
2987.735984  	0.022999 
2989.664800  	0.023111 
2991.593616  	0.023545 
2993.522432  	0.023619 
2995.451248  	0.023555 
2997.380064  	0.023692 
2999.308880  	0.024002 
3001.237696  	0.024302 
3003.166512  	0.024384 
3005.095328  	0.024445 
3007.024144  	0.024821 
3008.952960  	0.025116 
3010.881776  	0.025346 
3012.810592  	0.025544 
3014.739408  	0.025657 
3016.668224  	0.025953 
3018.597040  	0.026180 
3020.525856  	0.026190 
3022.454672  	0.026332 
3024.383488  	0.026596 
3026.312304  	0.026824 
3028.241120  	0.027024 
3030.169936  	0.027067 
3032.098752  	0.027262 
3034.027568  	0.027322 
3035.956384  	0.027334 
3037.885200  	0.027630 
3039.814016  	0.027908 
3041.742832  	0.028112 
3043.671648  	0.028209 
3045.600464  	0.028142 
3047.529280  	0.028266 
3049.458096  	0.028483 
3051.386912  	0.028451 
3053.315728  	0.028606 
3055.244544  	0.028924 
3057.173360  	0.029263 
3059.102176  	0.029450 
3061.030992  	0.029530 
3062.959808  	0.029618 
3064.888624  	0.029930 
3066.817440  	0.030327 
3068.746256  	0.030507 
3070.675072  	0.030524 
3072.603888  	0.030777 
3074.532704  	0.031142 
3076.461520  	0.031331 
3078.390336  	0.031532 
3080.319152  	0.031837 
3082.247968  	0.032090 
3084.176784  	0.032213 
3086.105600  	0.032294 
3088.034416  	0.032483 
3089.963232  	0.032852 
3091.892048  	0.033074 
3093.820864  	0.033116 
3095.749680  	0.033389 
3097.678496  	0.033545 
3099.607312  	0.033726 
3101.536128  	0.033959 
3103.464944  	0.034224 
3105.393760  	0.034436 
3107.322576  	0.034513 
3109.251392  	0.034632 
3111.180208  	0.034851 
3113.109024  	0.034970 
3115.037840  	0.034982 
3116.966656  	0.035216 
3118.895472  	0.035412 
3120.824288  	0.035369 
3122.753104  	0.035532 
3124.681920  	0.035967 
3126.610736  	0.036112 
3128.539552  	0.036085 
3130.468368  	0.036019 
3132.397184  	0.036015 
3134.326000  	0.036055 
3136.254816  	0.036235 
3138.183632  	0.036468 
3140.112448  	0.036451 
3142.041264  	0.036522 
3143.970080  	0.036787 
3145.898896  	0.036906 
3147.827712  	0.036935 
3149.756528  	0.037158 
3151.685344  	0.037558 
3153.614160  	0.037658 
3155.542976  	0.037615 
3157.471792  	0.037745 
3159.400608  	0.038217 
3161.329424  	0.038592 
3163.258240  	0.038702 
3165.187056  	0.038780 
3167.115872  	0.038815 
3169.044688  	0.038877 
3170.973504  	0.038932 
3172.902320  	0.038991 
3174.831136  	0.039064 
3176.759952  	0.039340 
3178.688768  	0.039689 
3180.617584  	0.039639 
3182.546400  	0.039352 
3184.475216  	0.039482 
3186.404032  	0.039681 
3188.332848  	0.039693 
3190.261664  	0.039828 
3192.190480  	0.039895 
3194.119296  	0.039797 
3196.048112  	0.039859 
3197.976928  	0.040208 
3199.905744  	0.040263 
3201.834560  	0.040109 
3203.763376  	0.040098 
3205.692192  	0.040132 
3207.621008  	0.040103 
3209.549824  	0.039856 
3211.478640  	0.039683 
3213.407456  	0.039694 
3215.336272  	0.039868 
3217.265088  	0.039765 
3219.193904  	0.039454 
3221.122720  	0.039225 
3223.051536  	0.039081 
3224.980352  	0.038973 
3226.909168  	0.038900 
3228.837984  	0.038798 
3230.766800  	0.038871 
3232.695616  	0.039082 
3234.624432  	0.039078 
3236.553248  	0.038931 
3238.482064  	0.038768 
3240.410880  	0.038610 
3242.339696  	0.038483 
3244.268512  	0.038454 
3246.197328  	0.038464 
3248.126144  	0.038425 
3250.054960  	0.038352 
3251.983776  	0.038216 
3253.912592  	0.038226 
3255.841408  	0.038260 
3257.770224  	0.038415 
3259.699040  	0.038517 
3261.627856  	0.038571 
3263.556672  	0.038507 
3265.485488  	0.038334 
3267.414304  	0.038474 
3269.343120  	0.038764 
3271.271936  	0.039038 
3273.200752  	0.039124 
3275.129568  	0.039252 
3277.058384  	0.039297 
3278.987200  	0.039403 
3280.916016  	0.039384 
3282.844832  	0.039162 
3284.773648  	0.039167 
3286.702464  	0.039334 
3288.631280  	0.039402 
3290.560096  	0.039368 
3292.488912  	0.039555 
3294.417728  	0.039723 
3296.346544  	0.039830 
3298.275360  	0.039922 
3300.204176  	0.040192 
3302.132992  	0.040360 
3304.061808  	0.040462 
3305.990624  	0.040606 
3307.919440  	0.040580 
3309.848256  	0.040586 
3311.777072  	0.040524 
3313.705888  	0.040716 
3315.634704  	0.041206 
3317.563520  	0.041523 
3319.492336  	0.041513 
3321.421152  	0.041419 
3323.349968  	0.041536 
3325.278784  	0.041779 
3327.207600  	0.041862 
3329.136416  	0.041861 
3331.065232  	0.041745 
3332.994048  	0.041817 
3334.922864  	0.041772 
3336.851680  	0.041590 
3338.780496  	0.041613 
3340.709312  	0.041557 
3342.638128  	0.041528 
3344.566944  	0.041615 
3346.495760  	0.041655 
3348.424576  	0.041487 
3350.353392  	0.041377 
3352.282208  	0.041151 
3354.211024  	0.041008 
3356.139840  	0.040941 
3358.068656  	0.040721 
3359.997472  	0.040641 
3361.926288  	0.040475 
3363.855104  	0.040096 
3365.783920  	0.039988 
3367.712736  	0.039960 
3369.641552  	0.039595 
3371.570368  	0.039348 
3373.499184  	0.039165 
3375.428000  	0.038992 
3377.356816  	0.038742 
3379.285632  	0.038648 
3381.214448  	0.038568 
3383.143264  	0.038333 
3385.072080  	0.038341 
3387.000896  	0.038258 
3388.929712  	0.037977 
3390.858528  	0.037742 
3392.787344  	0.037512 
3394.716160  	0.037158 
3396.644976  	0.037044 
3398.573792  	0.036942 
3400.502608  	0.036463 
3402.431424  	0.036094 
3404.360240  	0.035876 
3406.289056  	0.035772 
3408.217872  	0.035529 
3410.146688  	0.035232 
3412.075504  	0.035266 
3414.004320  	0.035291 
3415.933136  	0.034701 
3417.861952  	0.034127 
3419.790768  	0.034165 
3421.719584  	0.034101 
3423.648400  	0.033750 
3425.577216  	0.033606 
3427.506032  	0.033500 
3429.434848  	0.033031 
3431.363664  	0.032782 
3433.292480  	0.032638 
3435.221296  	0.032500 
3437.150112  	0.032363 
3439.078928  	0.032224 
3441.007744  	0.032047 
3442.936560  	0.031938 
3444.865376  	0.031428 
3446.794192  	0.030942 
3448.723008  	0.030929 
3450.651824  	0.030538 
3452.580640  	0.030074 
3454.509456  	0.029725 
3456.438272  	0.029668 
3458.367088  	0.029668 
3460.295904  	0.029341 
3462.224720  	0.028842 
3464.153536  	0.028427 
3466.082352  	0.028317 
3468.011168  	0.028164 
3469.939984  	0.027579 
3471.868800  	0.027189 
3473.797616  	0.026975 
3475.726432  	0.026622 
3477.655248  	0.026285 
3479.584064  	0.026176 
3481.512880  	0.026148 
3483.441696  	0.025700 
3485.370512  	0.024962 
3487.299328  	0.024716 
3489.228144  	0.024532 
3491.156960  	0.024060 
3493.085776  	0.023737 
3495.014592  	0.023519 
3496.943408  	0.023440 
3498.872224  	0.023000 
3500.801040  	0.022589 
3502.729856  	0.022562 
3504.658672  	0.022499 
3506.587488  	0.021773 
3508.516304  	0.021436 
3510.445120  	0.021520 
3512.373936  	0.021258 
3514.302752  	0.021053 
3516.231568  	0.020813 
3518.160384  	0.020417 
3520.089200  	0.019996 
3522.018016  	0.019884 
3523.946832  	0.020069 
3525.875648  	0.019788 
3527.804464  	0.019322 
3529.733280  	0.019153 
3531.662096  	0.018834 
3533.590912  	0.018385 
3535.519728  	0.018330 
3537.448544  	0.018409 
3539.377360  	0.017991 
3541.306176  	0.017537 
3543.234992  	0.017312 
3545.163808  	0.017650 
3547.092624  	0.017419 
3549.021440  	0.016358 
3550.950256  	0.015808 
3552.879072  	0.016309 
3554.807888  	0.016309 
3556.736704  	0.015689 
3558.665520  	0.015501 
3560.594336  	0.015588 
3562.523152  	0.015055 
3564.451968  	0.014405 
3566.380784  	0.014590 
3568.309600  	0.015428 
3570.238416  	0.014867 
3572.167232  	0.013804 
3574.096048  	0.013302 
3576.024864  	0.012992 
3577.953680  	0.012637 
3579.882496  	0.012701 
3581.811312  	0.012667 
3583.740128  	0.011940 
3585.668944  	0.011386 
3587.597760  	0.012089 
3589.526576  	0.012098 
3591.455392  	0.010687 
3593.384208  	0.010386 
3595.313024  	0.010482 
3597.241840  	0.009991 
3599.170656  	0.009375 
3601.099472  	0.009248 
3603.028288  	0.008957 
3604.957104  	0.008100 
3606.885920  	0.007561 
3608.814736  	0.008061 
3610.743552  	0.007588 
3612.672368  	0.006844 
3614.601184  	0.006933 
3616.530000  	0.005912 
3618.458816  	0.005471 
3620.387632  	0.006292 
3622.316448  	0.006137 
3624.245264  	0.005300 
3626.174080  	0.003993 
3628.102896  	0.003189 
3630.031712  	0.005107 
3631.960528  	0.004837 
3633.889344  	0.004173 
3635.818160  	0.003415 
3637.746976  	0.002826 
3639.675792  	0.003036 
3641.604608  	0.003085 
3643.533424  	0.002384 
3645.462240  	0.000830 
3647.391056  	-0.000426 
3649.319872  	-0.000465 
3651.248688  	0.000941 
3653.177504  	0.000986 
3655.106320  	-0.000099 
3657.035136  	0.000350 
3658.963952  	0.000487 
3660.892768  	0.000003 
3662.821584  	-0.000260 
3664.750400  	-0.000417 
3666.679216  	-0.001470 
3668.608032  	-0.003063 
3670.536848  	-0.002451 
3672.465664  	-0.002233 
3674.394480  	-0.003927 
3676.323296  	-0.001851 
3678.252112  	-0.001054 
3680.180928  	-0.001103 
3682.109744  	-0.001243 
3684.038560  	-0.001706 
3685.967376  	-0.002762 
3687.896192  	-0.003881 
3689.825008  	-0.003139 
3691.753824  	-0.001883 
3693.682640  	-0.001491 
3695.611456  	-0.001763 
3697.540272  	-0.001794 
3699.469088  	-0.002188 
3701.397904  	-0.001940 
3703.326720  	-0.001302 
3705.255536  	-0.001659 
3707.184352  	-0.002615 
3709.113168  	-0.003499 
3711.041984  	-0.003186 
3712.970800  	-0.001553 
3714.899616  	-0.001128 
3716.828432  	-0.001761 
3718.757248  	-0.002187 
3720.686064  	-0.002445 
3722.614880  	-0.001935 
3724.543696  	-0.001341 
3726.472512  	-0.001014 
3728.401328  	-0.001568 
3730.330144  	-0.003430 
3732.258960  	-0.004115 
3734.187776  	-0.003146 
3736.116592  	-0.001369 
3738.045408  	-0.001439 
3739.974224  	-0.002258 
3741.903040  	-0.003240 
3743.831856  	-0.003353 
3745.760672  	-0.001541 
3747.689488  	-0.003393 
3749.618304  	-0.004513 
3751.547120  	-0.003054 
3753.475936  	-0.001061 
3755.404752  	-0.001538 
3757.333568  	-0.002230 
3759.262384  	-0.002174 
3761.191200  	-0.001267 
3763.120016  	-0.001545 
3765.048832  	-0.001813 
3766.977648  	-0.001526 
3768.906464  	-0.001910 
3770.835280  	-0.001149 
3772.764096  	-0.000886 
3774.692912  	-0.001356 
3776.621728  	-0.002084 
3778.550544  	-0.002495 
3780.479360  	-0.001539 
3782.408176  	-0.001392 
3784.336992  	-0.001704 
3786.265808  	-0.001336 
3788.194624  	-0.001235 
3790.123440  	-0.001420 
3792.052256  	-0.001356 
3793.981072  	-0.001883 
3795.909888  	-0.002539 
3797.838704  	-0.002264 
3799.767520  	-0.003431 
3801.696336  	-0.002986 
3803.625152  	-0.002063 
3805.553968  	-0.003213 
3807.482784  	-0.002277 
3809.411600  	-0.001281 
3811.340416  	-0.001291 
3813.269232  	-0.002202 
3815.198048  	-0.003393 
3817.126864  	-0.002438 
3819.055680  	-0.003461 
3820.984496  	-0.003562 
3822.913312  	-0.001439 
3824.842128  	-0.001937 
3826.770944  	-0.002117 
3828.699760  	-0.002028 
3830.628576  	-0.002500 
3832.557392  	-0.002326 
3834.486208  	-0.002859 
3836.415024  	-0.003804 
3838.343840  	-0.003285 
3840.272656  	-0.002422 
3842.201472  	-0.002260 
3844.130288  	-0.001919 
3846.059104  	-0.001525 
3847.987920  	-0.001850 
3849.916736  	-0.002913 
3851.845552  	-0.004780 
3853.774368  	-0.002845 
3855.703184  	-0.000960 
3857.632000  	-0.001514 
3859.560816  	-0.002093 
3861.489632  	-0.002577 
3863.418448  	-0.002560 
3865.347264  	-0.001705 
3867.276080  	-0.002207 
3869.204896  	-0.002752 
3871.133712  	-0.000926 
3873.062528  	-0.001498 
3874.991344  	-0.001227 
3876.920160  	-0.001567 
3878.848976  	-0.002354 
3880.777792  	-0.001522 
3882.706608  	-0.001263 
3884.635424  	-0.001991 
3886.564240  	-0.001089 
3888.493056  	-0.001666 
3890.421872  	-0.002352 
3892.350688  	-0.001429 
3894.279504  	-0.001048 
3896.208320  	-0.001534 
3898.137136  	-0.001926 
3900.065952  	-0.001695 
3901.994768  	-0.001572 
3903.923584  	-0.001182 
3905.852400  	-0.000633 
3907.781216  	-0.001165 
3909.710032  	-0.001528 
3911.638848  	-0.001330 
3913.567664  	-0.001436 
3915.496480  	-0.001490 
3917.425296  	-0.000764 
3919.354112  	-0.000792 
3921.282928  	-0.001020 
3923.211744  	-0.001122 
3925.140560  	-0.000895 
3927.069376  	-0.001260 
3928.998192  	-0.001503 
3930.927008  	-0.000995 
3932.855824  	-0.000388 
3934.784640  	-0.000679 
3936.713456  	-0.001023 
3938.642272  	-0.001141 
3940.571088  	-0.001454 
3942.499904  	-0.000985 
3944.428720  	-0.000530 
3946.357536  	-0.000883 
3948.286352  	-0.000854 
3950.215168  	-0.000990 
3952.143984  	-0.001318 
3954.072800  	-0.001442 
3956.001616  	-0.001352 
3957.930432  	-0.001193 
3959.859248  	-0.001106 
3961.788064  	-0.001120 
3963.716880  	-0.001198 
3965.645696  	-0.001277 
3967.574512  	-0.001017 
3969.503328  	-0.000924 
3971.432144  	-0.001109 
3973.360960  	-0.001314 
3975.289776  	-0.001157 
3977.218592  	-0.001068 
3979.147408  	-0.001034 
3981.076224  	-0.001073 
3983.005040  	-0.001209 
3984.933856  	-0.001253 
3986.862672  	-0.001105 
3988.791488  	-0.001096 
3990.720304  	-0.001071 
3992.649120  	-0.001116 
3994.577936  	-0.001158 
3996.506752  	-0.001251 
3998.435568  	-0.001295 
4000.364384  	-0.001218 