##TITLE=No Description
##DATA TYPE=INFRARED SPECTRUM
##XUNITS=1/CM
##YUNITS=Abs
399.264912  	0.592035 
401.193728  	0.568051 
403.122544  	0.564990 
405.051360  	0.563471 
406.980176  	0.558303 
408.908992  	0.553263 
410.837808  	0.550810 
412.766624  	0.554378 
414.695440  	0.558187 
416.624256  	0.558150 
418.553072  	0.556267 
420.481888  	0.542796 
422.410704  	0.544183 
424.339520  	0.540113 
426.268336  	0.537054 
428.197152  	0.532611 
430.125968  	0.535583 
432.054784  	0.526087 
433.983600  	0.522425 
435.912416  	0.516610 
437.841232  	0.517204 
439.770048  	0.513272 
441.698864  	0.513855 
443.627680  	0.509947 
445.556496  	0.508456 
447.485312  	0.502684 
449.414128  	0.500746 
451.342944  	0.498213 
453.271760  	0.498557 
455.200576  	0.497513 
457.129392  	0.497980 
459.058208  	0.496301 
460.987024  	0.500988 
462.915840  	0.503693 
464.844656  	0.505051 
466.773472  	0.503206 
468.702288  	0.503775 
470.631104  	0.499517 
472.559920  	0.498188 
474.488736  	0.495596 
476.417552  	0.493098 
478.346368  	0.488361 
480.275184  	0.490052 
482.204000  	0.489808 
484.132816  	0.488240 
486.061632  	0.485413 
487.990448  	0.485181 
489.919264  	0.483221 
491.848080  	0.483850 
493.776896  	0.482091 
495.705712  	0.483173 
497.634528  	0.479797 
499.563344  	0.480606 
501.492160  	0.480910 
503.420976  	0.480003 
505.349792  	0.478266 
507.278608  	0.476286 
509.207424  	0.472873 
511.136240  	0.474065 
513.065056  	0.476744 
514.993872  	0.480577 
516.922688  	0.480137 
518.851504  	0.481186 
520.780320  	0.480107 
522.709136  	0.479770 
524.637952  	0.476913 
526.566768  	0.476062 
528.495584  	0.473748 
530.424400  	0.471826 
532.353216  	0.467415 
534.282032  	0.461738 
536.210848  	0.456473 
538.139664  	0.455379 
540.068480  	0.452899 
541.997296  	0.449943 
543.926112  	0.446015 
545.854928  	0.443482 
547.783744  	0.440512 
549.712560  	0.437462 
551.641376  	0.433685 
553.570192  	0.432098 
555.499008  	0.428887 
557.427824  	0.425883 
559.356640  	0.421581 
561.285456  	0.418430 
563.214272  	0.415243 
565.143088  	0.412141 
567.071904  	0.408562 
569.000720  	0.406492 
570.929536  	0.403332 
572.858352  	0.400793 
574.787168  	0.397838 
576.715984  	0.394790 
578.644800  	0.390722 
580.573616  	0.388010 
582.502432  	0.384169 
584.431248  	0.381646 
586.360064  	0.379910 
588.288880  	0.378312 
590.217696  	0.375830 
592.146512  	0.374253 
594.075328  	0.372552 
596.004144  	0.370534 
597.932960  	0.368617 
599.861776  	0.367244 
601.790592  	0.365526 
603.719408  	0.364654 
605.648224  	0.363023 
607.577040  	0.361961 
609.505856  	0.361113 
611.434672  	0.360161 
613.363488  	0.357557 
615.292304  	0.356009 
617.221120  	0.354011 
619.149936  	0.352933 
621.078752  	0.350743 
623.007568  	0.348201 
624.936384  	0.346031 
626.865200  	0.344920 
628.794016  	0.343329 
630.722832  	0.341304 
632.651648  	0.339961 
634.580464  	0.339048 
636.509280  	0.338671 
638.438096  	0.338510 
640.366912  	0.337417 
642.295728  	0.335663 
644.224544  	0.333445 
646.153360  	0.330641 
648.082176  	0.326835 
650.010992  	0.323968 
651.939808  	0.320650 
653.868624  	0.317210 
655.797440  	0.313658 
657.726256  	0.310775 
659.655072  	0.307665 
661.583888  	0.304868 
663.512704  	0.301753 
665.441520  	0.298637 
667.370336  	0.292544 
669.299152  	0.288664 
671.227968  	0.289114 
673.156784  	0.287257 
675.085600  	0.284600 
677.014416  	0.282733 
678.943232  	0.280978 
680.872048  	0.278679 
682.800864  	0.277464 
684.729680  	0.276642 
686.658496  	0.274627 
688.587312  	0.272624 
690.516128  	0.270611 
692.444944  	0.269215 
694.373760  	0.267973 
696.302576  	0.266655 
698.231392  	0.264364 
700.160208  	0.261881 
702.089024  	0.259437 
704.017840  	0.258032 
705.946656  	0.255245 
707.875472  	0.253144 
709.804288  	0.251166 
711.733104  	0.249463 
713.661920  	0.247645 
715.590736  	0.246450 
717.519552  	0.245630 
719.448368  	0.245481 
721.377184  	0.246420 
723.306000  	0.246774 
725.234816  	0.245788 
727.163632  	0.244284 
729.092448  	0.242505 
731.021264  	0.240339 
732.950080  	0.237628 
734.878896  	0.234638 
736.807712  	0.232091 
738.736528  	0.230260 
740.665344  	0.228681 
742.594160  	0.227614 
744.522976  	0.226185 
746.451792  	0.224864 
748.380608  	0.223496 
750.309424  	0.222618 
752.238240  	0.221878 
754.167056  	0.221276 
756.095872  	0.220308 
758.024688  	0.219182 
759.953504  	0.218204 
761.882320  	0.217513 
763.811136  	0.216941 
765.739952  	0.216266 
767.668768  	0.215122 
769.597584  	0.213765 
771.526400  	0.213200 
773.455216  	0.214294 
775.384032  	0.215968 
777.312848  	0.218108 
779.241664  	0.220269 
781.170480  	0.220655 
783.099296  	0.218126 
785.028112  	0.213786 
786.956928  	0.208517 
788.885744  	0.204178 
790.814560  	0.201072 
792.743376  	0.198670 
794.672192  	0.196665 
796.601008  	0.195637 
798.529824  	0.193778 
800.458640  	0.190986 
802.387456  	0.188095 
804.316272  	0.186314 
806.245088  	0.185333 
808.173904  	0.184745 
810.102720  	0.184500 
812.031536  	0.184055 
813.960352  	0.183132 
815.889168  	0.182446 
817.817984  	0.182355 
819.746800  	0.182101 
821.675616  	0.181211 
823.604432  	0.180544 
825.533248  	0.179394 
827.462064  	0.178000 
829.390880  	0.177058 
831.319696  	0.175948 
833.248512  	0.174487 
835.177328  	0.173093 
837.106144  	0.170902 
839.034960  	0.168166 
840.963776  	0.165565 
842.892592  	0.163202 
844.821408  	0.160482 
846.750224  	0.157947 
848.679040  	0.155932 
850.607856  	0.153994 
852.536672  	0.152279 
854.465488  	0.150279 
856.394304  	0.148590 
858.323120  	0.147080 
860.251936  	0.145247 
862.180752  	0.142950 
864.109568  	0.141261 
866.038384  	0.139808 
867.967200  	0.138231 
869.896016  	0.136764 
871.824832  	0.135516 
873.753648  	0.134945 
875.682464  	0.134950 
877.611280  	0.134702 
879.540096  	0.134249 
881.468912  	0.134827 
883.397728  	0.135092 
885.326544  	0.135312 
887.255360  	0.135117 
889.184176  	0.134146 
891.112992  	0.132724 
893.041808  	0.131362 
894.970624  	0.129816 
896.899440  	0.127718 
898.828256  	0.124885 
900.757072  	0.122214 
902.685888  	0.119890 
904.614704  	0.118340 
906.543520  	0.117771 
908.472336  	0.118426 
910.401152  	0.119894 
912.329968  	0.121863 
914.258784  	0.124152 
916.187600  	0.126367 
918.116416  	0.127897 
920.045232  	0.128459 
921.974048  	0.128043 
923.902864  	0.127411 
925.831680  	0.126516 
927.760496  	0.125513 
929.689312  	0.124733 
931.618128  	0.124590 
933.546944  	0.124615 
935.475760  	0.124472 
937.404576  	0.124383 
939.333392  	0.124836 
941.262208  	0.125804 
943.191024  	0.127338 
945.119840  	0.129787 
947.048656  	0.132829 
948.977472  	0.136804 
950.906288  	0.141559 
952.835104  	0.146747 
954.763920  	0.151876 
956.692736  	0.156601 
958.621552  	0.160729 
960.550368  	0.163520 
962.479184  	0.164808 
964.408000  	0.163881 
966.336816  	0.161302 
968.265632  	0.156624 
970.194448  	0.150706 
972.123264  	0.143808 
974.052080  	0.136249 
975.980896  	0.128530 
977.909712  	0.121444 
979.838528  	0.115502 
981.767344  	0.110492 
983.696160  	0.107084 
985.624976  	0.105388 
987.553792  	0.105390 
989.482608  	0.106781 
991.411424  	0.109670 
993.340240  	0.113877 
995.269056  	0.119113 
997.197872  	0.124671 
999.126688  	0.129841 
1001.055504  	0.135039 
1002.984320  	0.140053 
1004.913136  	0.144632 
1006.841952  	0.148601 
1008.770768  	0.152131 
1010.699584  	0.154660 
1012.628400  	0.156192 
1014.557216  	0.156969 
1016.486032  	0.157297 
1018.414848  	0.157441 
1020.343664  	0.157704 
1022.272480  	0.157707 
1024.201296  	0.157135 
1026.130112  	0.155235 
1028.058928  	0.154678 
1029.987744  	0.156832 
1031.916560  	0.158062 
1033.845376  	0.158608 
1035.774192  	0.158747 
1037.703008  	0.159845 
1039.631824  	0.163597 
1041.560640  	0.168387 
1043.489456  	0.174573 
1045.418272  	0.182420 
1047.347088  	0.192551 
1049.275904  	0.203371 
1051.204720  	0.214304 
1053.133536  	0.224402 
1055.062352  	0.232345 
1056.991168  	0.236775 
1058.919984  	0.241097 
1060.848800  	0.243702 
1062.777616  	0.242850 
1064.706432  	0.238412 
1066.635248  	0.234231 
1068.564064  	0.232489 
1070.492880  	0.228883 
1072.421696  	0.222811 
1074.350512  	0.217303 
1076.279328  	0.213282 
1078.208144  	0.210699 
1080.136960  	0.208998 
1082.065776  	0.207641 
1083.994592  	0.206371 
1085.923408  	0.205213 
1087.852224  	0.203071 
1089.781040  	0.200755 
1091.709856  	0.197512 
1093.638672  	0.192716 
1095.567488  	0.186179 
1097.496304  	0.179012 
1099.425120  	0.170979 
1101.353936  	0.162715 
1103.282752  	0.154762 
1105.211568  	0.147167 
1107.140384  	0.139517 
1109.069200  	0.132136 
1110.998016  	0.125523 
1112.926832  	0.119277 
1114.855648  	0.113180 
1116.784464  	0.107084 
1118.713280  	0.101699 
1120.642096  	0.096817 
1122.570912  	0.092127 
1124.499728  	0.087753 
1126.428544  	0.083314 
1128.357360  	0.078928 
1130.286176  	0.074751 
1132.214992  	0.071451 
1134.143808  	0.068650 
1136.072624  	0.066030 
1138.001440  	0.063587 
1139.930256  	0.061215 
1141.859072  	0.059124 
1143.787888  	0.057051 
1145.716704  	0.055523 
1147.645520  	0.054339 
1149.574336  	0.053528 
1151.503152  	0.053016 
1153.431968  	0.052790 
1155.360784  	0.052655 
1157.289600  	0.052978 
1159.218416  	0.053424 
1161.147232  	0.054254 
1163.076048  	0.055130 
1165.004864  	0.056322 
1166.933680  	0.057390 
1168.862496  	0.058735 
1170.791312  	0.060342 
1172.720128  	0.061994 
1174.648944  	0.063839 
1176.577760  	0.065762 
1178.506576  	0.067637 
1180.435392  	0.069649 
1182.364208  	0.071469 
1184.293024  	0.073645 
1186.221840  	0.076060 
1188.150656  	0.078559 
1190.079472  	0.081401 
1192.008288  	0.084805 
1193.937104  	0.088615 
1195.865920  	0.092974 
1197.794736  	0.097438 
1199.723552  	0.102439 
1201.652368  	0.107752 
1203.581184  	0.113163 
1205.510000  	0.118241 
1207.438816  	0.123179 
1209.367632  	0.127957 
1211.296448  	0.132591 
1213.225264  	0.136706 
1215.154080  	0.140002 
1217.082896  	0.142655 
1219.011712  	0.144550 
1220.940528  	0.146273 
1222.869344  	0.147494 
1224.798160  	0.148237 
1226.726976  	0.148442 
1228.655792  	0.148479 
1230.584608  	0.148113 
1232.513424  	0.147204 
1234.442240  	0.145584 
1236.371056  	0.143409 
1238.299872  	0.140522 
1240.228688  	0.135762 
1242.157504  	0.130843 
1244.086320  	0.126726 
1246.015136  	0.121429 
1247.943952  	0.115516 
1249.872768  	0.109777 
1251.801584  	0.104796 
1253.730400  	0.099824 
1255.659216  	0.094971 
1257.588032  	0.090435 
1259.516848  	0.086156 
1261.445664  	0.082248 
1263.374480  	0.078879 
1265.303296  	0.075868 
1267.232112  	0.073557 
1269.160928  	0.072032 
1271.089744  	0.071154 
1273.018560  	0.070867 
1274.947376  	0.071048 
1276.876192  	0.071237 
1278.805008  	0.070970 
1280.733824  	0.069787 
1282.662640  	0.067507 
1284.591456  	0.064531 
1286.520272  	0.061522 
1288.449088  	0.058989 
1290.377904  	0.056844 
1292.306720  	0.055255 
1294.235536  	0.053340 
1296.164352  	0.050780 
1298.093168  	0.047868 
1300.021984  	0.044999 
1301.950800  	0.042426 
1303.879616  	0.040367 
1305.808432  	0.038783 
1307.737248  	0.037577 
1309.666064  	0.036489 
1311.594880  	0.036131 
1313.523696  	0.036079 
1315.452512  	0.036092 
1317.381328  	0.036539 
1319.310144  	0.037214 
1321.238960  	0.037647 
1323.167776  	0.038209 
1325.096592  	0.038601 
1327.025408  	0.038585 
1328.954224  	0.038180 
1330.883040  	0.037537 
1332.811856  	0.036614 
1334.740672  	0.035921 
1336.669488  	0.035449 
1338.598304  	0.035370 
1340.527120  	0.034811 
1342.455936  	0.033778 
1344.384752  	0.033555 
1346.313568  	0.034018 
1348.242384  	0.034964 
1350.171200  	0.036305 
1352.100016  	0.037706 
1354.028832  	0.039192 
1355.957648  	0.040846 
1357.886464  	0.042286 
1359.815280  	0.043591 
1361.744096  	0.045158 
1363.672912  	0.046251 
1365.601728  	0.046189 
1367.530544  	0.046180 
1369.459360  	0.046091 
1371.388176  	0.045197 
1373.316992  	0.044062 
1375.245808  	0.042508 
1377.174624  	0.040725 
1379.103440  	0.038885 
1381.032256  	0.037191 
1382.961072  	0.035991 
1384.889888  	0.035374 
1386.818704  	0.035410 
1388.747520  	0.034856 
1390.676336  	0.032966 
1392.605152  	0.030163 
1394.533968  	0.029423 
1396.462784  	0.031909 
1398.391600  	0.032730 
1400.320416  	0.032677 
1402.249232  	0.032405 
1404.178048  	0.033086 
1406.106864  	0.034148 
1408.035680  	0.035475 
1409.964496  	0.037215 
1411.893312  	0.039411 
1413.822128  	0.041451 
1415.750944  	0.043580 
1417.679760  	0.044807 
1419.608576  	0.045381 
1421.537392  	0.045256 
1423.466208  	0.044923 
1425.395024  	0.044053 
1427.323840  	0.042570 
1429.252656  	0.041260 
1431.181472  	0.040533 
1433.110288  	0.040023 
1435.039104  	0.039739 
1436.967920  	0.040381 
1438.896736  	0.040761 
1440.825552  	0.040782 
1442.754368  	0.041137 
1444.683184  	0.041102 
1446.612000  	0.041003 
1448.540816  	0.040979 
1450.469632  	0.040982 
1452.398448  	0.040965 
1454.327264  	0.040905 
1456.256080  	0.041118 
1458.184896  	0.042317 
1460.113712  	0.042777 
1462.042528  	0.042854 
1463.971344  	0.042958 
1465.900160  	0.044724 
1467.828976  	0.046471 
1469.757792  	0.047926 
1471.686608  	0.050001 
1473.615424  	0.054187 
1475.544240  	0.056942 
1477.473056  	0.058726 
1479.401872  	0.059177 
1481.330688  	0.059444 
1483.259504  	0.059182 
1485.188320  	0.058303 
1487.117136  	0.056642 
1489.045952  	0.055165 
1490.974768  	0.052936 
1492.903584  	0.050205 
1494.832400  	0.047332 
1496.761216  	0.044652 
1498.690032  	0.042601 
1500.618848  	0.041440 
1502.547664  	0.039791 
1504.476480  	0.037243 
1506.405296  	0.036242 
1508.334112  	0.038415 
1510.262928  	0.037756 
1512.191744  	0.036574 
1514.120560  	0.035548 
1516.049376  	0.035373 
1517.978192  	0.035521 
1519.907008  	0.035670 
1521.835824  	0.037326 
1523.764640  	0.039585 
1525.693456  	0.041992 
1527.622272  	0.044277 
1529.551088  	0.045350 
1531.479904  	0.045655 
1533.408720  	0.045569 
1535.337536  	0.045392 
1537.266352  	0.042995 
1539.195168  	0.039217 
1541.123984  	0.038324 
1543.052800  	0.039596 
1544.981616  	0.039611 
1546.910432  	0.038463 
1548.839248  	0.037754 
1550.768064  	0.037860 
1552.696880  	0.037099 
1554.625696  	0.037089 
1556.554512  	0.035729 
1558.483328  	0.035012 
1560.412144  	0.040286 
1562.340960  	0.042382 
1564.269776  	0.043685 
1566.198592  	0.046425 
1568.127408  	0.048167 
1570.056224  	0.051908 
1571.985040  	0.055332 
1573.913856  	0.056291 
1575.842672  	0.056784 
1577.771488  	0.059315 
1579.700304  	0.059736 
1581.629120  	0.059632 
1583.557936  	0.059860 
1585.486752  	0.061181 
1587.415568  	0.063179 
1589.344384  	0.066273 
1591.273200  	0.069839 
1593.202016  	0.073907 
1595.130832  	0.077742 
1597.059648  	0.081642 
1598.988464  	0.084547 
1600.917280  	0.086809 
1602.846096  	0.088027 
1604.774912  	0.088855 
1606.703728  	0.088543 
1608.632544  	0.088193 
1610.561360  	0.087777 
1612.490176  	0.087714 
1614.418992  	0.086978 
1616.347808  	0.087685 
1618.276624  	0.091133 
1620.205440  	0.094405 
1622.134256  	0.097170 
1624.063072  	0.102879 
1625.991888  	0.108035 
1627.920704  	0.113657 
1629.849520  	0.120005 
1631.778336  	0.125172 
1633.707152  	0.128357 
1635.635968  	0.133510 
1637.564784  	0.140331 
1639.493600  	0.144435 
1641.422416  	0.147341 
1643.351232  	0.148907 
1645.280048  	0.149046 
1647.208864  	0.150606 
1649.137680  	0.151561 
1651.066496  	0.149814 
1652.995312  	0.147923 
1654.924128  	0.150963 
1656.852944  	0.150349 
1658.781760  	0.149337 
1660.710576  	0.147894 
1662.639392  	0.146795 
1664.568208  	0.146305 
1666.497024  	0.145271 
1668.425840  	0.143640 
1670.354656  	0.143349 
1672.283472  	0.143317 
1674.212288  	0.142822 
1676.141104  	0.143778 
1678.069920  	0.144718 
1679.998736  	0.145346 
1681.927552  	0.144855 
1683.856368  	0.144082 
1685.785184  	0.146660 
1687.714000  	0.146596 
1689.642816  	0.145639 
1691.571632  	0.144007 
1693.500448  	0.141425 
1695.429264  	0.137809 
1697.358080  	0.134812 
1699.286896  	0.130955 
1701.215712  	0.127609 
1703.144528  	0.124405 
1705.073344  	0.120002 
1707.002160  	0.115521 
1708.930976  	0.111502 
1710.859792  	0.106829 
1712.788608  	0.101640 
1714.717424  	0.096191 
1716.646240  	0.090312 
1718.575056  	0.084754 
1720.503872  	0.079893 
1722.432688  	0.075218 
1724.361504  	0.069814 
1726.290320  	0.064704 
1728.219136  	0.059819 
1730.147952  	0.055269 
1732.076768  	0.050380 
1734.005584  	0.045667 
1735.934400  	0.041110 
1737.863216  	0.037362 
1739.792032  	0.032962 
1741.720848  	0.030178 
1743.649664  	0.027671 
1745.578480  	0.024869 
1747.507296  	0.022007 
1749.436112  	0.020498 
1751.364928  	0.019667 
1753.293744  	0.018436 
1755.222560  	0.016792 
1757.151376  	0.016162 
1759.080192  	0.014991 
1761.009008  	0.014308 
1762.937824  	0.013980 
1764.866640  	0.013589 
1766.795456  	0.013077 
1768.724272  	0.012857 
1770.653088  	0.010987 
1772.581904  	0.010587 
1774.510720  	0.011411 
1776.439536  	0.011747 
1778.368352  	0.011408 
1780.297168  	0.011514 
1782.225984  	0.011323 
1784.154800  	0.011296 
1786.083616  	0.011269 
1788.012432  	0.010859 
1789.941248  	0.010125 
1791.870064  	0.009912 
1793.798880  	0.010015 
1795.727696  	0.010454 
1797.656512  	0.009973 
1799.585328  	0.009669 
1801.514144  	0.009874 
1803.442960  	0.009717 
1805.371776  	0.009387 
1807.300592  	0.009326 
1809.229408  	0.008738 
1811.158224  	0.008849 
1813.087040  	0.008864 
1815.015856  	0.008536 
1816.944672  	0.008402 
1818.873488  	0.008784 
1820.802304  	0.008775 
1822.731120  	0.008710 
1824.659936  	0.008591 
1826.588752  	0.008664 
1828.517568  	0.007999 
1830.446384  	0.008796 
1832.375200  	0.009103 
1834.304016  	0.008851 
1836.232832  	0.008705 
1838.161648  	0.008958 
1840.090464  	0.008749 
1842.019280  	0.008245 
1843.948096  	0.008038 
1845.876912  	0.008755 
1847.805728  	0.008723 
1849.734544  	0.008687 
1851.663360  	0.008336 
1853.592176  	0.008223 
1855.520992  	0.008113 
1857.449808  	0.008687 
1859.378624  	0.008698 
1861.307440  	0.008796 
1863.236256  	0.008416 
1865.165072  	0.008022 
1867.093888  	0.007770 
1869.022704  	0.008681 
1870.951520  	0.008720 
1872.880336  	0.008582 
1874.809152  	0.008238 
1876.737968  	0.008189 
1878.666784  	0.007954 
1880.595600  	0.008217 
1882.524416  	0.008368 
1884.453232  	0.008302 
1886.382048  	0.007821 
1888.310864  	0.007925 
1890.239680  	0.008358 
1892.168496  	0.008565 
1894.097312  	0.008046 
1896.026128  	0.008215 
1897.954944  	0.007917 
1899.883760  	0.007931 
1901.812576  	0.007755 
1903.741392  	0.007787 
1905.670208  	0.007715 
1907.599024  	0.007966 
1909.527840  	0.007930 
1911.456656  	0.008089 
1913.385472  	0.007967 
1915.314288  	0.008071 
1917.243104  	0.007977 
1919.171920  	0.008245 
1921.100736  	0.008159 
1923.029552  	0.008637 
1924.958368  	0.007920 
1926.887184  	0.007919 
1928.816000  	0.007635 
1930.744816  	0.007234 
1932.673632  	0.006906 
1934.602448  	0.007401 
1936.531264  	0.007727 
1938.460080  	0.007937 
1940.388896  	0.007311 
1942.317712  	0.007393 
1944.246528  	0.007167 
1946.175344  	0.007743 
1948.104160  	0.007430 
1950.032976  	0.007599 
1951.961792  	0.007750 
1953.890608  	0.008274 
1955.819424  	0.007662 
1957.748240  	0.007386 
1959.677056  	0.007398 
1961.605872  	0.007363 
1963.534688  	0.006886 
1965.463504  	0.008111 
1967.392320  	0.008285 
1969.321136  	0.008519 
1971.249952  	0.008698 
1973.178768  	0.008647 
1975.107584  	0.006749 
1977.036400  	0.006782 
1978.965216  	0.010274 
1980.894032  	0.010813 
1982.822848  	0.008032 
1984.751664  	0.007289 
1986.680480  	0.007516 
1988.609296  	0.008135 
1990.538112  	0.008097 
1992.466928  	0.009063 
1994.395744  	0.009358 
1996.324560  	0.009087 
1998.253376  	0.008179 
2000.182192  	0.007720 
2002.111008  	0.007349 
2004.039824  	0.007356 
2005.968640  	0.006332 
2007.897456  	0.007425 
2009.826272  	0.006947 
2011.755088  	0.006496 
2013.683904  	0.007578 
2015.612720  	0.008469 
2017.541536  	0.007884 
2019.470352  	0.007340 
2021.399168  	0.006584 
2023.327984  	0.008081 
2025.256800  	0.008152 
2027.185616  	0.008001 
2029.114432  	0.007272 
2031.043248  	0.008485 
2032.972064  	0.008618 
2034.900880  	0.009273 
2036.829696  	0.009495 
2038.758512  	0.009203 
2040.687328  	0.008699 
2042.616144  	0.008712 
2044.544960  	0.008572 
2046.473776  	0.009029 
2048.402592  	0.008881 
2050.331408  	0.009735 
2052.260224  	0.009355 
2054.189040  	0.009361 
2056.117856  	0.008558 
2058.046672  	0.008110 
2059.975488  	0.007932 
2061.904304  	0.007885 
2063.833120  	0.008673 
2065.761936  	0.009682 
2067.690752  	0.009198 
2069.619568  	0.008354 
2071.548384  	0.007681 
2073.477200  	0.007837 
2075.406016  	0.008361 
2077.334832  	0.008403 
2079.263648  	0.007823 
2081.192464  	0.008106 
2083.121280  	0.008684 
2085.050096  	0.008759 
2086.978912  	0.008699 
2088.907728  	0.008836 
2090.836544  	0.008363 
2092.765360  	0.007715 
2094.694176  	0.007499 
2096.622992  	0.007934 
2098.551808  	0.008070 
2100.480624  	0.008004 
2102.409440  	0.007770 
2104.338256  	0.008222 
2106.267072  	0.008497 
2108.195888  	0.008795 
2110.124704  	0.008926 
2112.053520  	0.008829 
2113.982336  	0.008486 
2115.911152  	0.008786 
2117.839968  	0.008333 
2119.768784  	0.007857 
2121.697600  	0.007733 
2123.626416  	0.007626 
2125.555232  	0.007356 
2127.484048  	0.007619 
2129.412864  	0.007421 
2131.341680  	0.006633 
2133.270496  	0.006710 
2135.199312  	0.007503 
2137.128128  	0.007836 
2139.056944  	0.008329 
2140.985760  	0.007175 
2142.914576  	0.007114 
2144.843392  	0.007391 
2146.772208  	0.008221 
2148.701024  	0.009078 
2150.629840  	0.008781 
2152.558656  	0.006578 
2154.487472  	0.005064 
2156.416288  	0.005233 
2158.345104  	0.008559 
2160.273920  	0.011519 
2162.202736  	0.011589 
2164.131552  	0.009837 
2166.060368  	0.011037 
2167.989184  	0.010611 
2169.918000  	0.009401 
2171.846816  	0.009060 
2173.775632  	0.009044 
2175.704448  	0.009594 
2177.633264  	0.010382 
2179.562080  	0.009512 
2181.490896  	0.008946 
2183.419712  	0.008820 
2185.348528  	0.009031 
2187.277344  	0.008828 
2189.206160  	0.009412 
2191.134976  	0.009889 
2193.063792  	0.010862 
2194.992608  	0.010926 
2196.921424  	0.010120 
2198.850240  	0.010583 
2200.779056  	0.010444 
2202.707872  	0.009978 
2204.636688  	0.010378 
2206.565504  	0.010076 
2208.494320  	0.010173 
2210.423136  	0.009087 
2212.351952  	0.008936 
2214.280768  	0.009086 
2216.209584  	0.009220 
2218.138400  	0.009152 
2220.067216  	0.009101 
2221.996032  	0.009540 
2223.924848  	0.009552 
2225.853664  	0.009663 
2227.782480  	0.010009 
2229.711296  	0.010256 
2231.640112  	0.010173 
2233.568928  	0.009251 
2235.497744  	0.008916 
2237.426560  	0.008932 
2239.355376  	0.009415 
2241.284192  	0.009593 
2243.213008  	0.009693 
2245.141824  	0.009456 
2247.070640  	0.008880 
2248.999456  	0.008624 
2250.928272  	0.008872 
2252.857088  	0.008641 
2254.785904  	0.008283 
2256.714720  	0.008469 
2258.643536  	0.009302 
2260.572352  	0.009535 
2262.501168  	0.009495 
2264.429984  	0.009279 
2266.358800  	0.009425 
2268.287616  	0.009689 
2270.216432  	0.009881 
2272.145248  	0.009281 
2274.074064  	0.009257 
2276.002880  	0.009576 
2277.931696  	0.009983 
2279.860512  	0.010361 
2281.789328  	0.010620 
2283.718144  	0.010652 
2285.646960  	0.010701 
2287.575776  	0.010806 
2289.504592  	0.010474 
2291.433408  	0.010072 
2293.362224  	0.010038 
2295.291040  	0.010137 
2297.219856  	0.010138 
2299.148672  	0.010102 
2301.077488  	0.010015 
2303.006304  	0.009902 
2304.935120  	0.009801 
2306.863936  	0.009326 
2308.792752  	0.009090 
2310.721568  	0.009119 
2312.650384  	0.008647 
2314.579200  	0.007857 
2316.508016  	0.007379 
2318.436832  	0.006748 
2320.365648  	0.006084 
2322.294464  	0.005239 
2324.223280  	0.004133 
2326.152096  	0.002185 
2328.080912  	0.000656 
2330.009728  	-0.000324 
2331.938544  	-0.000948 
2333.867360  	-0.002209 
2335.796176  	-0.003331 
2337.724992  	-0.003828 
2339.653808  	-0.004109 
2341.582624  	-0.004207 
2343.511440  	-0.002668 
2345.440256  	-0.000065 
2347.369072  	0.003070 
2349.297888  	0.003369 
2351.226704  	0.000652 
2353.155520  	-0.002426 
2355.084336  	-0.005253 
2357.013152  	-0.007211 
2358.941968  	-0.008233 
2360.870784  	-0.009405 
2362.799600  	-0.008951 
2364.728416  	-0.007253 
2366.657232  	-0.005107 
2368.586048  	-0.003023 
2370.514864  	-0.000240 
2372.443680  	0.002534 
2374.372496  	0.005089 
2376.301312  	0.007041 
2378.230128  	0.008693 
2380.158944  	0.009604 
2382.087760  	0.010144 
2384.016576  	0.010420 
2385.945392  	0.010543 
2387.874208  	0.010338 
2389.803024  	0.010110 
2391.731840  	0.009968 
2393.660656  	0.010006 
2395.589472  	0.010238 
2397.518288  	0.010444 
2399.447104  	0.010364 
2401.375920  	0.010105 
2403.304736  	0.010110 
2405.233552  	0.010284 
2407.162368  	0.010525 
2409.091184  	0.010501 
2411.020000  	0.010394 
2412.948816  	0.010563 
2414.877632  	0.010608 
2416.806448  	0.010757 
2418.735264  	0.010726 
2420.664080  	0.010679 
2422.592896  	0.010613 
2424.521712  	0.010647 
2426.450528  	0.010765 
2428.379344  	0.010826 
2430.308160  	0.010877 
2432.236976  	0.010949 
2434.165792  	0.011206 
2436.094608  	0.011647 
2438.023424  	0.011808 
2439.952240  	0.011924 
2441.881056  	0.012014 
2443.809872  	0.011927 
2445.738688  	0.011760 
2447.667504  	0.011773 
2449.596320  	0.011785 
2451.525136  	0.011925 
2453.453952  	0.012079 
2455.382768  	0.012156 
2457.311584  	0.012103 
2459.240400  	0.012048 
2461.169216  	0.012046 
2463.098032  	0.012094 
2465.026848  	0.012031 
2466.955664  	0.012029 
2468.884480  	0.011964 
2470.813296  	0.011927 
2472.742112  	0.011764 
2474.670928  	0.011888 
2476.599744  	0.012037 
2478.528560  	0.011958 
2480.457376  	0.012104 
2482.386192  	0.012314 
2484.315008  	0.012407 
2486.243824  	0.012587 
2488.172640  	0.012724 
2490.101456  	0.012892 
2492.030272  	0.013023 
2493.959088  	0.013047 
2495.887904  	0.012776 
2497.816720  	0.012708 
2499.745536  	0.012815 
2501.674352  	0.013019 
2503.603168  	0.012985 
2505.531984  	0.013034 
2507.460800  	0.013129 
2509.389616  	0.013051 
2511.318432  	0.012810 
2513.247248  	0.012919 
2515.176064  	0.013199 
2517.104880  	0.013555 
2519.033696  	0.013790 
2520.962512  	0.013859 
2522.891328  	0.014070 
2524.820144  	0.014093 
2526.748960  	0.013950 
2528.677776  	0.014001 
2530.606592  	0.014068 
2532.535408  	0.014132 
2534.464224  	0.014304 
2536.393040  	0.014423 
2538.321856  	0.014276 
2540.250672  	0.014292 
2542.179488  	0.014325 
2544.108304  	0.014442 
2546.037120  	0.014326 
2547.965936  	0.014610 
2549.894752  	0.014983 
2551.823568  	0.014916 
2553.752384  	0.014770 
2555.681200  	0.014781 
2557.610016  	0.014893 
2559.538832  	0.014922 
2561.467648  	0.014969 
2563.396464  	0.015408 
2565.325280  	0.015686 
2567.254096  	0.015613 
2569.182912  	0.015439 
2571.111728  	0.015444 
2573.040544  	0.015377 
2574.969360  	0.015119 
2576.898176  	0.015263 
2578.826992  	0.015756 
2580.755808  	0.015670 
2582.684624  	0.015485 
2584.613440  	0.015490 
2586.542256  	0.015828 
2588.471072  	0.016070 
2590.399888  	0.015880 
2592.328704  	0.015818 
2594.257520  	0.016139 
2596.186336  	0.016509 
2598.115152  	0.016601 
2600.043968  	0.016434 
2601.972784  	0.016344 
2603.901600  	0.016497 
2605.830416  	0.016667 
2607.759232  	0.016522 
2609.688048  	0.016693 
2611.616864  	0.016967 
2613.545680  	0.016975 
2615.474496  	0.016863 
2617.403312  	0.016914 
2619.332128  	0.017091 
2621.260944  	0.017200 
2623.189760  	0.017286 
2625.118576  	0.017443 
2627.047392  	0.017463 
2628.976208  	0.017684 
2630.905024  	0.017844 
2632.833840  	0.018010 
2634.762656  	0.018078 
2636.691472  	0.018048 
2638.620288  	0.018056 
2640.549104  	0.018099 
2642.477920  	0.018171 
2644.406736  	0.018238 
2646.335552  	0.018410 
2648.264368  	0.018584 
2650.193184  	0.018749 
2652.122000  	0.018942 
2654.050816  	0.018955 
2655.979632  	0.018903 
2657.908448  	0.018898 
2659.837264  	0.018930 
2661.766080  	0.018920 
2663.694896  	0.018968 
2665.623712  	0.018867 
2667.552528  	0.018820 
2669.481344  	0.018957 
2671.410160  	0.019209 
2673.338976  	0.019352 
2675.267792  	0.019434 
2677.196608  	0.019538 
2679.125424  	0.019705 
2681.054240  	0.019751 
2682.983056  	0.019807 
2684.911872  	0.019958 
2686.840688  	0.019998 
2688.769504  	0.020028 
2690.698320  	0.020129 
2692.627136  	0.020306 
2694.555952  	0.020446 
2696.484768  	0.020414 
2698.413584  	0.020505 
2700.342400  	0.020594 
2702.271216  	0.020711 
2704.200032  	0.020873 
2706.128848  	0.020965 
2708.057664  	0.020974 
2709.986480  	0.020948 
2711.915296  	0.021007 
2713.844112  	0.021090 
2715.772928  	0.021231 
2717.701744  	0.021425 
2719.630560  	0.021469 
2721.559376  	0.021400 
2723.488192  	0.021474 
2725.417008  	0.021699 
2727.345824  	0.021845 
2729.274640  	0.021852 
2731.203456  	0.021847 
2733.132272  	0.021943 
2735.061088  	0.022137 
2736.989904  	0.022345 
2738.918720  	0.022307 
2740.847536  	0.022174 
2742.776352  	0.022258 
2744.705168  	0.022415 
2746.633984  	0.022458 
2748.562800  	0.022580 
2750.491616  	0.022793 
2752.420432  	0.022783 
2754.349248  	0.022722 
2756.278064  	0.022798 
2758.206880  	0.022907 
2760.135696  	0.023104 
2762.064512  	0.023088 
2763.993328  	0.023028 
2765.922144  	0.023080 
2767.850960  	0.023143 
2769.779776  	0.023135 
2771.708592  	0.023240 
2773.637408  	0.023282 
2775.566224  	0.023290 
2777.495040  	0.023273 
2779.423856  	0.023250 
2781.352672  	0.023357 
2783.281488  	0.023509 
2785.210304  	0.023573 
2787.139120  	0.023762 
2789.067936  	0.023875 
2790.996752  	0.023959 
2792.925568  	0.024035 
2794.854384  	0.024000 
2796.783200  	0.023999 
2798.712016  	0.023987 
2800.640832  	0.024127 
2802.569648  	0.024351 
2804.498464  	0.024429 
2806.427280  	0.024367 
2808.356096  	0.024413 
2810.284912  	0.024586 
2812.213728  	0.024562 
2814.142544  	0.024646 
2816.071360  	0.024796 
2818.000176  	0.024705 
2819.928992  	0.024547 
2821.857808  	0.024631 
2823.786624  	0.024653 
2825.715440  	0.024537 
2827.644256  	0.024411 
2829.573072  	0.024453 
2831.501888  	0.024397 
2833.430704  	0.024174 
2835.359520  	0.023965 
2837.288336  	0.023761 
2839.217152  	0.023603 
2841.145968  	0.023362 
2843.074784  	0.023239 
2845.003600  	0.023221 
2846.932416  	0.023303 
2848.861232  	0.023254 
2850.790048  	0.022874 
2852.718864  	0.022446 
2854.647680  	0.021943 
2856.576496  	0.021472 
2858.505312  	0.021025 
2860.434128  	0.020595 
2862.362944  	0.020058 
2864.291760  	0.019488 
2866.220576  	0.019029 
2868.149392  	0.018946 
2870.078208  	0.019006 
2872.007024  	0.019052 
2873.935840  	0.019136 
2875.864656  	0.019129 
2877.793472  	0.019091 
2879.722288  	0.018971 
2881.651104  	0.018549 
2883.579920  	0.018310 
2885.508736  	0.018387 
2887.437552  	0.018643 
2889.366368  	0.018582 
2891.295184  	0.018334 
2893.224000  	0.018259 
2895.152816  	0.018398 
2897.081632  	0.017998 
2899.010448  	0.016700 
2900.939264  	0.015903 
2902.868080  	0.016864 
2904.796896  	0.017775 
2906.725712  	0.018190 
2908.654528  	0.018561 
2910.583344  	0.018884 
2912.512160  	0.019712 
2914.440976  	0.020803 
2916.369792  	0.021518 
2918.298608  	0.021894 
2920.227424  	0.022268 
2922.156240  	0.022839 
2924.085056  	0.023301 
2926.013872  	0.023785 
2927.942688  	0.024495 
2929.871504  	0.025242 
2931.800320  	0.025850 
2933.729136  	0.026115 
2935.657952  	0.026276 
2937.586768  	0.026642 
2939.515584  	0.026766 
2941.444400  	0.026706 
2943.373216  	0.026779 
2945.302032  	0.026862 
2947.230848  	0.026828 
2949.159664  	0.026501 
2951.088480  	0.025956 
2953.017296  	0.025518 
2954.946112  	0.024984 
2956.874928  	0.024381 
2958.803744  	0.023801 
2960.732560  	0.023295 
2962.661376  	0.022821 
2964.590192  	0.021953 
2966.519008  	0.020942 
2968.447824  	0.020084 
2970.376640  	0.019378 
2972.305456  	0.018805 
2974.234272  	0.018800 
2976.163088  	0.018943 
2978.091904  	0.019064 
2980.020720  	0.019128 
2981.949536  	0.019127 
2983.878352  	0.018753 
2985.807168  	0.017961 
2987.735984  	0.017460 
2989.664800  	0.017968 
2991.593616  	0.020216 
2993.522432  	0.021431 
2995.451248  	0.021668 
2997.380064  	0.022296 
2999.308880  	0.023259 
3001.237696  	0.024155 
3003.166512  	0.025004 
3005.095328  	0.025963 
3007.024144  	0.027078 
3008.952960  	0.028169 
3010.881776  	0.029190 
3012.810592  	0.030044 
3014.739408  	0.030827 
3016.668224  	0.031764 
3018.597040  	0.032579 
3020.525856  	0.033186 
3022.454672  	0.033934 
3024.383488  	0.034614 
3026.312304  	0.035216 
3028.241120  	0.035853 
3030.169936  	0.036316 
3032.098752  	0.037098 
3034.027568  	0.037527 
3035.956384  	0.037686 
3037.885200  	0.038132 
3039.814016  	0.038706 
3041.742832  	0.039189 
3043.671648  	0.039491 
3045.600464  	0.039646 
3047.529280  	0.039825 
3049.458096  	0.040168 
3051.386912  	0.040332 
3053.315728  	0.040582 
3055.244544  	0.041000 
3057.173360  	0.041482 
3059.102176  	0.041862 
3061.030992  	0.041988 
3062.959808  	0.042181 
3064.888624  	0.042607 
3066.817440  	0.043024 
3068.746256  	0.043201 
3070.675072  	0.043289 
3072.603888  	0.043597 
3074.532704  	0.044071 
3076.461520  	0.044443 
3078.390336  	0.044621 
3080.319152  	0.044932 
3082.247968  	0.045291 
3084.176784  	0.045591 
3086.105600  	0.045789 
3088.034416  	0.045983 
3089.963232  	0.046199 
3091.892048  	0.046503 
3093.820864  	0.046880 
3095.749680  	0.047325 
3097.678496  	0.047401 
3099.607312  	0.047461 
3101.536128  	0.047682 
3103.464944  	0.048127 
3105.393760  	0.048557 
3107.322576  	0.048829 
3109.251392  	0.048981 
3111.180208  	0.049242 
3113.109024  	0.049433 
3115.037840  	0.049449 
3116.966656  	0.049751 
3118.895472  	0.050074 
3120.824288  	0.050197 
3122.753104  	0.050399 
3124.681920  	0.050506 
3126.610736  	0.050575 
3128.539552  	0.050850 
3130.468368  	0.051035 
3132.397184  	0.051013 
3134.326000  	0.051215 
3136.254816  	0.051482 
3138.183632  	0.051642 
3140.112448  	0.051631 
3142.041264  	0.051674 
3143.970080  	0.051874 
3145.898896  	0.052055 
3147.827712  	0.052271 
3149.756528  	0.052542 
3151.685344  	0.052901 
3153.614160  	0.053231 
3155.542976  	0.053261 
3157.471792  	0.053339 
3159.400608  	0.053765 
3161.329424  	0.054181 
3163.258240  	0.054385 
3165.187056  	0.054469 
3167.115872  	0.054644 
3169.044688  	0.054875 
3170.973504  	0.055050 
3172.902320  	0.055271 
3174.831136  	0.055457 
3176.759952  	0.055576 
3178.688768  	0.055768 
3180.617584  	0.055853 
3182.546400  	0.055740 
3184.475216  	0.055872 
3186.404032  	0.055944 
3188.332848  	0.055968 
3190.261664  	0.056203 
3192.190480  	0.056303 
3194.119296  	0.056175 
3196.048112  	0.056097 
3197.976928  	0.056420 
3199.905744  	0.056520 
3201.834560  	0.056406 
3203.763376  	0.056446 
3205.692192  	0.056376 
3207.621008  	0.056314 
3209.549824  	0.056154 
3211.478640  	0.055878 
3213.407456  	0.055817 
3215.336272  	0.055943 
3217.265088  	0.055850 
3219.193904  	0.055604 
3221.122720  	0.055386 
3223.051536  	0.055399 
3224.980352  	0.055243 
3226.909168  	0.054799 
3228.837984  	0.054600 
3230.766800  	0.054788 
3232.695616  	0.054870 
3234.624432  	0.054701 
3236.553248  	0.054463 
3238.482064  	0.054361 
3240.410880  	0.054458 
3242.339696  	0.054312 
3244.268512  	0.054127 
3246.197328  	0.054164 
3248.126144  	0.054174 
3250.054960  	0.054170 
3251.983776  	0.054058 
3253.912592  	0.054018 
3255.841408  	0.054130 
3257.770224  	0.054234 
3259.699040  	0.054379 
3261.627856  	0.054572 
3263.556672  	0.054553 
3265.485488  	0.054479 
3267.414304  	0.054717 
3269.343120  	0.054850 
3271.271936  	0.054862 
3273.200752  	0.054883 
3275.129568  	0.055050 
3277.058384  	0.055030 
3278.987200  	0.055094 
3280.916016  	0.055296 
3282.844832  	0.055365 
3284.773648  	0.055391 
3286.702464  	0.055511 
3288.631280  	0.055727 
3290.560096  	0.055888 
3292.488912  	0.056033 
3294.417728  	0.056097 
3296.346544  	0.056239 
3298.275360  	0.056298 
3300.204176  	0.056399 
3302.132992  	0.056627 
3304.061808  	0.056919 
3305.990624  	0.057124 
3307.919440  	0.057134 
3309.848256  	0.057146 
3311.777072  	0.057054 
3313.705888  	0.057107 
3315.634704  	0.057598 
3317.563520  	0.057925 
3319.492336  	0.057919 
3321.421152  	0.057932 
3323.349968  	0.057978 
3325.278784  	0.058274 
3327.207600  	0.058421 
3329.136416  	0.058266 
3331.065232  	0.058313 
3332.994048  	0.058372 
3334.922864  	0.058353 
3336.851680  	0.058397 
3338.780496  	0.058429 
3340.709312  	0.058375 
3342.638128  	0.058112 
3344.566944  	0.057966 
3346.495760  	0.057927 
3348.424576  	0.057764 
3350.353392  	0.057581 
3352.282208  	0.057344 
3354.211024  	0.057196 
3356.139840  	0.057079 
3358.068656  	0.056832 
3359.997472  	0.056627 
3361.926288  	0.056424 
3363.855104  	0.056023 
3365.783920  	0.055858 
3367.712736  	0.055742 
3369.641552  	0.055337 
3371.570368  	0.055016 
3373.499184  	0.054854 
3375.428000  	0.054597 
3377.356816  	0.054353 
3379.285632  	0.054245 
3381.214448  	0.054011 
3383.143264  	0.053696 
3385.072080  	0.053608 
3387.000896  	0.053349 
3388.929712  	0.052982 
3390.858528  	0.052706 
3392.787344  	0.052506 
3394.716160  	0.052048 
3396.644976  	0.051819 
3398.573792  	0.051669 
3400.502608  	0.051190 
3402.431424  	0.050749 
3404.360240  	0.050507 
3406.289056  	0.050176 
3408.217872  	0.049659 
3410.146688  	0.049286 
3412.075504  	0.049384 
3414.004320  	0.049289 
3415.933136  	0.048856 
3417.861952  	0.048450 
3419.790768  	0.048278 
3421.719584  	0.048137 
3423.648400  	0.047610 
3425.577216  	0.047261 
3427.506032  	0.046986 
3429.434848  	0.046414 
3431.363664  	0.046183 
3433.292480  	0.046099 
3435.221296  	0.045861 
3437.150112  	0.045569 
3439.078928  	0.045267 
3441.007744  	0.044926 
3442.936560  	0.044749 
3444.865376  	0.044299 
3446.794192  	0.043760 
3448.723008  	0.043480 
3450.651824  	0.043054 
3452.580640  	0.042573 
3454.509456  	0.042187 
3456.438272  	0.041918 
3458.367088  	0.041656 
3460.295904  	0.041270 
3462.224720  	0.040737 
3464.153536  	0.040208 
3466.082352  	0.039987 
3468.011168  	0.039704 
3469.939984  	0.039181 
3471.868800  	0.038754 
3473.797616  	0.038436 
3475.726432  	0.037983 
3477.655248  	0.037311 
3479.584064  	0.037022 
3481.512880  	0.036938 
3483.441696  	0.036228 
3485.370512  	0.035402 
3487.299328  	0.035073 
3489.228144  	0.034750 
3491.156960  	0.034235 
3493.085776  	0.033792 
3495.014592  	0.033503 
3496.943408  	0.033371 
3498.872224  	0.032864 
3500.801040  	0.032574 
3502.729856  	0.032563 
3504.658672  	0.032022 
3506.587488  	0.030976 
3508.516304  	0.030710 
3510.445120  	0.030938 
3512.373936  	0.030659 
3514.302752  	0.030205 
3516.231568  	0.029691 
3518.160384  	0.029202 
3520.089200  	0.028948 
3522.018016  	0.028877 
3523.946832  	0.028957 
3525.875648  	0.028381 
3527.804464  	0.027764 
3529.733280  	0.027550 
3531.662096  	0.027164 
3533.590912  	0.026609 
3535.519728  	0.026570 
3537.448544  	0.026553 
3539.377360  	0.025950 
3541.306176  	0.025337 
3543.234992  	0.025079 
3545.163808  	0.025552 
3547.092624  	0.025563 
3549.021440  	0.024361 
3550.950256  	0.023652 
3552.879072  	0.023831 
3554.807888  	0.023518 
3556.736704  	0.022937 
3558.665520  	0.022782 
3560.594336  	0.022736 
3562.523152  	0.022080 
3564.451968  	0.021669 
3566.380784  	0.022258 
3568.309600  	0.022633 
3570.238416  	0.021425 
3572.167232  	0.020357 
3574.096048  	0.020034 
3576.024864  	0.019705 
3577.953680  	0.019348 
3579.882496  	0.019037 
3581.811312  	0.018661 
3583.740128  	0.017890 
3585.668944  	0.017339 
3587.597760  	0.018450 
3589.526576  	0.018317 
3591.455392  	0.016383 
3593.384208  	0.015911 
3595.313024  	0.015995 
3597.241840  	0.015419 
3599.170656  	0.014506 
3601.099472  	0.014231 
3603.028288  	0.013817 
3604.957104  	0.012935 
3606.885920  	0.012485 
3608.814736  	0.013302 
3610.743552  	0.012729 
3612.672368  	0.011782 
3614.601184  	0.011412 
3616.530000  	0.009871 
3618.458816  	0.009336 
3620.387632  	0.010028 
3622.316448  	0.009261 
3624.245264  	0.008209 
3626.174080  	0.006610 
3628.102896  	0.006143 
3630.031712  	0.008626 
3631.960528  	0.007454 
3633.889344  	0.006250 
3635.818160  	0.005457 
3637.746976  	0.005063 
3639.675792  	0.005104 
3641.604608  	0.004526 
3643.533424  	0.003432 
3645.462240  	0.001577 
3647.391056  	0.000552 
3649.319872  	0.001133 
3651.248688  	0.002546 
3653.177504  	0.001254 
3655.106320  	-0.000452 
3657.035136  	-0.000010 
3658.963952  	-0.000418 
3660.892768  	-0.001328 
3662.821584  	-0.001763 
3664.750400  	-0.001971 
3666.679216  	-0.003082 
3668.608032  	-0.004277 
3670.536848  	-0.003164 
3672.465664  	-0.003629 
3674.394480  	-0.005918 
3676.323296  	-0.003413 
3678.252112  	-0.002024 
3680.180928  	-0.001846 
3682.109744  	-0.002253 
3684.038560  	-0.002957 
3685.967376  	-0.004415 
3687.896192  	-0.005243 
3689.825008  	-0.004009 
3691.753824  	-0.002794 
3693.682640  	-0.002467 
3695.611456  	-0.002636 
3697.540272  	-0.002188 
3699.469088  	-0.002446 
3701.397904  	-0.001875 
3703.326720  	-0.000669 
3705.255536  	-0.000915 
3707.184352  	-0.001983 
3709.113168  	-0.002640 
3711.041984  	-0.001556 
3712.970800  	0.000496 
3714.899616  	0.000678 
3716.828432  	-0.000274 
3718.757248  	-0.000793 
3720.686064  	-0.001064 
3722.614880  	-0.000490 
3724.543696  	0.000085 
3726.472512  	0.000659 
3728.401328  	-0.000047 
3730.330144  	-0.002347 
3732.258960  	-0.003228 
3734.187776  	-0.001733 
3736.116592  	0.001059 
3738.045408  	0.000604 
3739.974224  	-0.000710 
3741.903040  	-0.001957 
3743.831856  	-0.001288 
3745.760672  	0.001303 
3747.689488  	-0.001690 
3749.618304  	-0.002994 
3751.547120  	-0.001107 
3753.475936  	0.001107 
3755.404752  	0.000236 
3757.333568  	-0.000436 
3759.262384  	-0.000071 
3761.191200  	0.000841 
3763.120016  	0.000283 
3765.048832  	0.000070 
3766.977648  	0.000109 
3768.906464  	-0.000470 
3770.835280  	0.000734 
3772.764096  	0.001030 
3774.692912  	0.000542 
3776.621728  	-0.000107 
3778.550544  	-0.000347 
3780.479360  	0.000511 
3782.408176  	0.000338 
3784.336992  	0.000125 
3786.265808  	0.000558 
3788.194624  	0.000577 
3790.123440  	0.000341 
3792.052256  	0.000036 
3793.981072  	-0.000721 
3795.909888  	-0.000794 
3797.838704  	-0.000409 
3799.767520  	-0.001990 
3801.696336  	-0.000982 
3803.625152  	0.000117 
3805.553968  	-0.001305 
3807.482784  	0.000092 
3809.411600  	0.000889 
3811.340416  	0.000329 
3813.269232  	-0.000965 
3815.198048  	-0.001738 
3817.126864  	-0.000499 
3819.055680  	-0.001974 
3820.984496  	-0.001281 
3822.913312  	0.001075 
3824.842128  	-0.000042 
3826.770944  	-0.000187 
3828.699760  	-0.000266 
3830.628576  	-0.000980 
3832.557392  	-0.000796 
3834.486208  	-0.001273 
3836.415024  	-0.002062 
3838.343840  	-0.001019 
3840.272656  	0.000041 
3842.201472  	-0.000009 
3844.130288  	0.000196 
3846.059104  	0.000302 
3847.987920  	-0.000405 
3849.916736  	-0.001747 
3851.845552  	-0.003254 
3853.774368  	0.000175 
3855.703184  	0.001910 
3857.632000  	0.000613 
3859.560816  	-0.000416 
3861.489632  	-0.000851 
3863.418448  	-0.000636 
3865.347264  	0.000366 
3867.276080  	-0.000433 
3869.204896  	-0.000687 
3871.133712  	0.001456 
3873.062528  	0.000480 
3874.991344  	0.000832 
3876.920160  	0.000189 
3878.848976  	-0.000593 
3880.777792  	0.000857 
3882.706608  	0.000762 
3884.635424  	-0.000206 
3886.564240  	0.001379 
3888.493056  	0.000542 
3890.421872  	0.000043 
3892.350688  	0.001136 
3894.279504  	0.000918 
3896.208320  	0.000027 
3898.137136  	-0.000267 
3900.065952  	0.000377 
3901.994768  	0.000591 
3903.923584  	0.001289 
3905.852400  	0.002030 
3907.781216  	0.001222 
3909.710032  	0.000533 
3911.638848  	0.000464 
3913.567664  	0.000280 
3915.496480  	0.000399 
3917.425296  	0.001416 
3919.354112  	0.001521 
3921.282928  	0.001156 
3923.211744  	0.000756 
3925.140560  	0.001172 
3927.069376  	0.000885 
3928.998192  	0.000513 
3930.927008  	0.001072 
3932.855824  	0.001815 
3934.784640  	0.001369 
3936.713456  	0.000919 
3938.642272  	0.000821 
3940.571088  	0.000615 
3942.499904  	0.001218 
3944.428720  	0.001359 
3946.357536  	0.000869 
3948.286352  	0.001058 
3950.215168  	0.001031 
3952.143984  	0.000706 
3954.072800  	0.000611 
3956.001616  	0.000777 
3957.930432  	0.000916 
3959.859248  	0.001006 
3961.788064  	0.001166 
3963.716880  	0.001084 
3965.645696  	0.000746 
3967.574512  	0.000755 
3969.503328  	0.000772 
3971.432144  	0.000731 
3973.360960  	0.000772 
3975.289776  	0.001055 
3977.218592  	0.001074 
3979.147408  	0.000961 
3981.076224  	0.000835 
3983.005040  	0.000667 
3984.933856  	0.000719 
3986.862672  	0.000762 
3988.791488  	0.000696 
3990.720304  	0.000824 
3992.649120  	0.000906 
3994.577936  	0.000865 
3996.506752  	0.000809 
3998.435568  	0.000918 
4000.364384  	0.000946 