##TITLE=No Description
##DATA TYPE=INFRARED SPECTRUM
##XUNITS=1/CM
##YUNITS=Abs
399.264912  	0.603791 
401.193728  	0.580592 
403.122544  	0.575227 
405.051360  	0.573420 
406.980176  	0.576744 
408.908992  	0.567316 
410.837808  	0.562916 
412.766624  	0.563720 
414.695440  	0.565691 
416.624256  	0.548968 
418.553072  	0.544913 
420.481888  	0.544012 
422.410704  	0.544305 
424.339520  	0.524951 
426.268336  	0.526289 
428.197152  	0.530668 
430.125968  	0.537950 
432.054784  	0.535427 
433.983600  	0.530281 
435.912416  	0.521629 
437.841232  	0.519971 
439.770048  	0.516797 
441.698864  	0.518127 
443.627680  	0.511608 
445.556496  	0.508671 
447.485312  	0.507035 
449.414128  	0.501483 
451.342944  	0.495410 
453.271760  	0.503190 
455.200576  	0.504217 
457.129392  	0.500429 
459.058208  	0.495563 
460.987024  	0.497789 
462.915840  	0.499827 
464.844656  	0.501253 
466.773472  	0.498596 
468.702288  	0.493915 
470.631104  	0.485918 
472.559920  	0.489715 
474.488736  	0.494061 
476.417552  	0.493213 
478.346368  	0.487288 
480.275184  	0.491801 
482.204000  	0.492573 
484.132816  	0.490424 
486.061632  	0.485651 
487.990448  	0.485991 
489.919264  	0.482841 
491.848080  	0.480729 
493.776896  	0.479844 
495.705712  	0.482314 
497.634528  	0.480932 
499.563344  	0.480011 
501.492160  	0.477141 
503.420976  	0.479953 
505.349792  	0.478670 
507.278608  	0.478119 
509.207424  	0.477394 
511.136240  	0.480040 
513.065056  	0.478929 
514.993872  	0.477424 
516.922688  	0.477164 
518.851504  	0.477880 
520.780320  	0.475576 
522.709136  	0.477931 
524.637952  	0.478262 
526.566768  	0.476549 
528.495584  	0.474369 
530.424400  	0.471552 
532.353216  	0.464201 
534.282032  	0.460655 
536.210848  	0.458323 
538.139664  	0.456248 
540.068480  	0.452865 
541.997296  	0.448794 
543.926112  	0.443932 
545.854928  	0.442485 
547.783744  	0.440004 
549.712560  	0.435689 
551.641376  	0.430293 
553.570192  	0.428849 
555.499008  	0.426609 
557.427824  	0.424699 
559.356640  	0.420489 
561.285456  	0.417112 
563.214272  	0.413334 
565.143088  	0.410273 
567.071904  	0.406276 
569.000720  	0.403632 
570.929536  	0.400717 
572.858352  	0.398063 
574.787168  	0.395269 
576.715984  	0.392973 
578.644800  	0.388694 
580.573616  	0.385347 
582.502432  	0.381635 
584.431248  	0.379273 
586.360064  	0.376947 
588.288880  	0.375888 
590.217696  	0.373430 
592.146512  	0.371208 
594.075328  	0.368618 
596.004144  	0.366293 
597.932960  	0.364823 
599.861776  	0.364246 
601.790592  	0.362817 
603.719408  	0.361577 
605.648224  	0.360001 
607.577040  	0.359223 
609.505856  	0.358794 
611.434672  	0.357519 
613.363488  	0.355033 
615.292304  	0.353248 
617.221120  	0.351577 
619.149936  	0.350203 
621.078752  	0.347510 
623.007568  	0.345255 
624.936384  	0.343588 
626.865200  	0.342549 
628.794016  	0.340976 
630.722832  	0.339510 
632.651648  	0.338002 
634.580464  	0.337365 
636.509280  	0.337354 
638.438096  	0.336548 
640.366912  	0.335130 
642.295728  	0.333334 
644.224544  	0.330909 
646.153360  	0.328294 
648.082176  	0.324694 
650.010992  	0.322028 
651.939808  	0.318993 
653.868624  	0.315633 
655.797440  	0.312290 
657.726256  	0.309220 
659.655072  	0.305353 
661.583888  	0.302128 
663.512704  	0.298786 
665.441520  	0.295984 
667.370336  	0.291486 
669.299152  	0.287989 
671.227968  	0.286988 
673.156784  	0.284423 
675.085600  	0.281773 
677.014416  	0.280233 
678.943232  	0.278660 
680.872048  	0.276847 
682.800864  	0.275530 
684.729680  	0.274519 
686.658496  	0.272418 
688.587312  	0.270668 
690.516128  	0.268687 
692.444944  	0.267255 
694.373760  	0.265659 
696.302576  	0.263703 
698.231392  	0.261579 
700.160208  	0.259321 
702.089024  	0.256729 
704.017840  	0.255160 
705.946656  	0.252865 
707.875472  	0.250183 
709.804288  	0.248336 
711.733104  	0.246782 
713.661920  	0.245075 
715.590736  	0.244265 
717.519552  	0.243341 
719.448368  	0.243340 
721.377184  	0.244078 
723.306000  	0.244350 
725.234816  	0.243871 
727.163632  	0.242523 
729.092448  	0.239913 
731.021264  	0.237224 
732.950080  	0.234928 
734.878896  	0.232731 
736.807712  	0.230516 
738.736528  	0.228640 
740.665344  	0.226748 
742.594160  	0.225269 
744.522976  	0.223781 
746.451792  	0.222770 
748.380608  	0.221608 
750.309424  	0.220541 
752.238240  	0.219677 
754.167056  	0.219138 
756.095872  	0.218079 
758.024688  	0.217042 
759.953504  	0.216153 
761.882320  	0.215761 
763.811136  	0.215547 
765.739952  	0.214699 
767.668768  	0.213446 
769.597584  	0.212449 
771.526400  	0.211980 
773.455216  	0.213044 
775.384032  	0.214773 
777.312848  	0.217204 
779.241664  	0.219571 
781.170480  	0.220045 
783.099296  	0.217790 
785.028112  	0.213240 
786.956928  	0.207642 
788.885744  	0.203172 
790.814560  	0.199811 
792.743376  	0.197718 
794.672192  	0.196098 
796.601008  	0.195021 
798.529824  	0.193122 
800.458640  	0.190240 
802.387456  	0.187368 
804.316272  	0.185996 
806.245088  	0.185430 
808.173904  	0.184859 
810.102720  	0.184376 
812.031536  	0.184023 
813.960352  	0.183388 
815.889168  	0.182792 
817.817984  	0.182468 
819.746800  	0.182014 
821.675616  	0.181327 
823.604432  	0.180892 
825.533248  	0.180026 
827.462064  	0.178553 
829.390880  	0.177537 
831.319696  	0.176534 
833.248512  	0.175080 
835.177328  	0.173526 
837.106144  	0.171482 
839.034960  	0.168862 
840.963776  	0.166201 
842.892592  	0.163907 
844.821408  	0.161331 
846.750224  	0.158805 
848.679040  	0.156561 
850.607856  	0.154501 
852.536672  	0.152684 
854.465488  	0.150954 
856.394304  	0.149473 
858.323120  	0.147784 
860.251936  	0.146108 
862.180752  	0.144632 
864.109568  	0.143125 
866.038384  	0.141574 
867.967200  	0.139952 
869.896016  	0.138643 
871.824832  	0.137368 
873.753648  	0.136632 
875.682464  	0.136478 
877.611280  	0.136356 
879.540096  	0.136442 
881.468912  	0.136928 
883.397728  	0.137222 
885.326544  	0.137440 
887.255360  	0.137345 
889.184176  	0.136770 
891.112992  	0.135680 
893.041808  	0.134462 
894.970624  	0.132682 
896.899440  	0.130440 
898.828256  	0.127552 
900.757072  	0.124587 
902.685888  	0.122056 
904.614704  	0.120378 
906.543520  	0.119445 
908.472336  	0.119888 
910.401152  	0.121351 
912.329968  	0.123447 
914.258784  	0.125928 
916.187600  	0.128210 
918.116416  	0.129703 
920.045232  	0.130358 
921.974048  	0.130132 
923.902864  	0.129372 
925.831680  	0.128256 
927.760496  	0.127252 
929.689312  	0.126340 
931.618128  	0.126028 
933.546944  	0.126118 
935.475760  	0.126170 
937.404576  	0.126210 
939.333392  	0.126663 
941.262208  	0.127639 
943.191024  	0.129259 
945.119840  	0.131879 
947.048656  	0.135308 
948.977472  	0.139660 
950.906288  	0.144815 
952.835104  	0.150465 
954.763920  	0.155816 
956.692736  	0.161019 
958.621552  	0.165760 
960.550368  	0.168932 
962.479184  	0.170510 
964.408000  	0.169963 
966.336816  	0.167264 
968.265632  	0.162325 
970.194448  	0.156092 
972.123264  	0.148627 
974.052080  	0.140479 
975.980896  	0.132599 
977.909712  	0.125248 
979.838528  	0.118856 
981.767344  	0.113625 
983.696160  	0.109857 
985.624976  	0.107975 
987.553792  	0.107965 
989.482608  	0.109353 
991.411424  	0.112422 
993.340240  	0.116980 
995.269056  	0.122644 
997.197872  	0.128574 
999.126688  	0.134350 
1001.055504  	0.140149 
1002.984320  	0.145708 
1004.913136  	0.150950 
1006.841952  	0.155582 
1008.770768  	0.159593 
1010.699584  	0.162616 
1012.628400  	0.164466 
1014.557216  	0.165448 
1016.486032  	0.166213 
1018.414848  	0.166701 
1020.343664  	0.167113 
1022.272480  	0.167146 
1024.201296  	0.166963 
1026.130112  	0.165889 
1028.058928  	0.165808 
1029.987744  	0.167333 
1031.916560  	0.168779 
1033.845376  	0.170175 
1035.774192  	0.171782 
1037.703008  	0.174182 
1039.631824  	0.178483 
1041.560640  	0.184065 
1043.489456  	0.191219 
1045.418272  	0.200055 
1047.347088  	0.211039 
1049.275904  	0.222783 
1051.204720  	0.234337 
1053.133536  	0.244384 
1055.062352  	0.252982 
1056.991168  	0.258518 
1058.919984  	0.262270 
1060.848800  	0.263525 
1062.777616  	0.262641 
1064.706432  	0.259176 
1066.635248  	0.255285 
1068.564064  	0.251899 
1070.492880  	0.247660 
1072.421696  	0.241887 
1074.350512  	0.236468 
1076.279328  	0.232380 
1078.208144  	0.229418 
1080.136960  	0.226828 
1082.065776  	0.224845 
1083.994592  	0.222846 
1085.923408  	0.220637 
1087.852224  	0.217655 
1089.781040  	0.214410 
1091.709856  	0.209764 
1093.638672  	0.203649 
1095.567488  	0.196201 
1097.496304  	0.188631 
1099.425120  	0.180383 
1101.353936  	0.171871 
1103.282752  	0.163465 
1105.211568  	0.154954 
1107.140384  	0.146618 
1109.069200  	0.138551 
1110.998016  	0.131135 
1112.926832  	0.124397 
1114.855648  	0.117870 
1116.784464  	0.111463 
1118.713280  	0.105756 
1120.642096  	0.100498 
1122.570912  	0.095259 
1124.499728  	0.090313 
1126.428544  	0.085797 
1128.357360  	0.081476 
1130.286176  	0.077292 
1132.214992  	0.073728 
1134.143808  	0.070824 
1136.072624  	0.068064 
1138.001440  	0.065349 
1139.930256  	0.062893 
1141.859072  	0.060766 
1143.787888  	0.058672 
1145.716704  	0.056953 
1147.645520  	0.055568 
1149.574336  	0.054714 
1151.503152  	0.054190 
1153.431968  	0.053978 
1155.360784  	0.053895 
1157.289600  	0.054088 
1159.218416  	0.054495 
1161.147232  	0.055468 
1163.076048  	0.056402 
1165.004864  	0.057537 
1166.933680  	0.058778 
1168.862496  	0.060376 
1170.791312  	0.062236 
1172.720128  	0.064064 
1174.648944  	0.065985 
1176.577760  	0.068153 
1178.506576  	0.070268 
1180.435392  	0.072373 
1182.364208  	0.074370 
1184.293024  	0.076644 
1186.221840  	0.079156 
1188.150656  	0.081953 
1190.079472  	0.085128 
1192.008288  	0.088798 
1193.937104  	0.093081 
1195.865920  	0.097865 
1197.794736  	0.102462 
1199.723552  	0.107657 
1201.652368  	0.113329 
1203.581184  	0.119021 
1205.510000  	0.124534 
1207.438816  	0.130013 
1209.367632  	0.135343 
1211.296448  	0.140237 
1213.225264  	0.144651 
1215.154080  	0.148252 
1217.082896  	0.151148 
1219.011712  	0.153412 
1220.940528  	0.155458 
1222.869344  	0.156902 
1224.798160  	0.157835 
1226.726976  	0.158160 
1228.655792  	0.158043 
1230.584608  	0.157436 
1232.513424  	0.156367 
1234.442240  	0.154384 
1236.371056  	0.151705 
1238.299872  	0.148395 
1240.228688  	0.143991 
1242.157504  	0.139104 
1244.086320  	0.134486 
1246.015136  	0.129016 
1247.943952  	0.123142 
1249.872768  	0.117137 
1251.801584  	0.111621 
1253.730400  	0.106366 
1255.659216  	0.101344 
1257.588032  	0.096495 
1259.516848  	0.091905 
1261.445664  	0.087710 
1263.374480  	0.083983 
1265.303296  	0.080637 
1267.232112  	0.077899 
1269.160928  	0.076074 
1271.089744  	0.074996 
1273.018560  	0.074599 
1274.947376  	0.074694 
1276.876192  	0.074836 
1278.805008  	0.074512 
1280.733824  	0.073308 
1282.662640  	0.070896 
1284.591456  	0.067662 
1286.520272  	0.064445 
1288.449088  	0.061831 
1290.377904  	0.059630 
1292.306720  	0.057916 
1294.235536  	0.055945 
1296.164352  	0.053298 
1298.093168  	0.050199 
1300.021984  	0.047297 
1301.950800  	0.044591 
1303.879616  	0.042350 
1305.808432  	0.040725 
1307.737248  	0.039462 
1309.666064  	0.038303 
1311.594880  	0.037881 
1313.523696  	0.037841 
1315.452512  	0.037860 
1317.381328  	0.038236 
1319.310144  	0.038817 
1321.238960  	0.039388 
1323.167776  	0.039993 
1325.096592  	0.040356 
1327.025408  	0.040394 
1328.954224  	0.040012 
1330.883040  	0.039339 
1332.811856  	0.038342 
1334.740672  	0.037592 
1336.669488  	0.037074 
1338.598304  	0.036861 
1340.527120  	0.036324 
1342.455936  	0.035445 
1344.384752  	0.035195 
1346.313568  	0.035683 
1348.242384  	0.036661 
1350.171200  	0.038073 
1352.100016  	0.039624 
1354.028832  	0.041209 
1355.957648  	0.042935 
1357.886464  	0.044544 
1359.815280  	0.045901 
1361.744096  	0.047457 
1363.672912  	0.048887 
1365.601728  	0.049292 
1367.530544  	0.049586 
1369.459360  	0.049776 
1371.388176  	0.049120 
1373.316992  	0.048096 
1375.245808  	0.046820 
1377.174624  	0.045318 
1379.103440  	0.043621 
1381.032256  	0.042024 
1382.961072  	0.040833 
1384.889888  	0.040158 
1386.818704  	0.039827 
1388.747520  	0.039041 
1390.676336  	0.037412 
1392.605152  	0.035391 
1394.533968  	0.034715 
1396.462784  	0.036112 
1398.391600  	0.036540 
1400.320416  	0.036826 
1402.249232  	0.036894 
1404.178048  	0.037768 
1406.106864  	0.039068 
1408.035680  	0.040433 
1409.964496  	0.042041 
1411.893312  	0.043984 
1413.822128  	0.045676 
1415.750944  	0.047372 
1417.679760  	0.048199 
1419.608576  	0.048503 
1421.537392  	0.048199 
1423.466208  	0.047582 
1425.395024  	0.046646 
1427.323840  	0.045227 
1429.252656  	0.043724 
1431.181472  	0.042803 
1433.110288  	0.042358 
1435.039104  	0.041976 
1436.967920  	0.042429 
1438.896736  	0.042973 
1440.825552  	0.043127 
1442.754368  	0.043470 
1444.683184  	0.043402 
1446.612000  	0.043207 
1448.540816  	0.043344 
1450.469632  	0.043568 
1452.398448  	0.043599 
1454.327264  	0.043266 
1456.256080  	0.042834 
1458.184896  	0.043969 
1460.113712  	0.044727 
1462.042528  	0.044807 
1463.971344  	0.044628 
1465.900160  	0.046355 
1467.828976  	0.048240 
1469.757792  	0.049753 
1471.686608  	0.051719 
1473.615424  	0.055981 
1475.544240  	0.058832 
1477.473056  	0.060994 
1479.401872  	0.061634 
1481.330688  	0.061880 
1483.259504  	0.061745 
1485.188320  	0.060824 
1487.117136  	0.059016 
1489.045952  	0.057321 
1490.974768  	0.055181 
1492.903584  	0.052599 
1494.832400  	0.049405 
1496.761216  	0.046319 
1498.690032  	0.044167 
1500.618848  	0.042988 
1502.547664  	0.041285 
1504.476480  	0.038452 
1506.405296  	0.036816 
1508.334112  	0.039091 
1510.262928  	0.038589 
1512.191744  	0.037413 
1514.120560  	0.036342 
1516.049376  	0.035944 
1517.978192  	0.036066 
1519.907008  	0.036179 
1521.835824  	0.037917 
1523.764640  	0.040589 
1525.693456  	0.043005 
1527.622272  	0.045361 
1529.551088  	0.046672 
1531.479904  	0.046834 
1533.408720  	0.046446 
1535.337536  	0.046426 
1537.266352  	0.043974 
1539.195168  	0.039794 
1541.123984  	0.038695 
1543.052800  	0.039931 
1544.981616  	0.039983 
1546.910432  	0.039146 
1548.839248  	0.038363 
1550.768064  	0.038526 
1552.696880  	0.037831 
1554.625696  	0.037776 
1556.554512  	0.036337 
1558.483328  	0.035033 
1560.412144  	0.040719 
1562.340960  	0.043389 
1564.269776  	0.044740 
1566.198592  	0.047481 
1568.127408  	0.049307 
1570.056224  	0.053150 
1571.985040  	0.056754 
1573.913856  	0.057707 
1575.842672  	0.058156 
1577.771488  	0.060939 
1579.700304  	0.061515 
1581.629120  	0.061522 
1583.557936  	0.061761 
1585.486752  	0.063081 
1587.415568  	0.065227 
1589.344384  	0.068492 
1591.273200  	0.072161 
1593.202016  	0.076410 
1595.130832  	0.080496 
1597.059648  	0.084648 
1598.988464  	0.087679 
1600.917280  	0.090170 
1602.846096  	0.091626 
1604.774912  	0.092457 
1606.703728  	0.092113 
1608.632544  	0.091859 
1610.561360  	0.091416 
1612.490176  	0.091289 
1614.418992  	0.090367 
1616.347808  	0.090995 
1618.276624  	0.094773 
1620.205440  	0.098154 
1622.134256  	0.100974 
1624.063072  	0.106983 
1625.991888  	0.112274 
1627.920704  	0.118081 
1629.849520  	0.124788 
1631.778336  	0.130053 
1633.707152  	0.133012 
1635.635968  	0.138333 
1637.564784  	0.145813 
1639.493600  	0.149958 
1641.422416  	0.152873 
1643.351232  	0.154663 
1645.280048  	0.154602 
1647.208864  	0.156058 
1649.137680  	0.157340 
1651.066496  	0.155237 
1652.995312  	0.152417 
1654.924128  	0.155942 
1656.852944  	0.155716 
1658.781760  	0.154706 
1660.710576  	0.153169 
1662.639392  	0.151953 
1664.568208  	0.151568 
1666.497024  	0.150325 
1668.425840  	0.148210 
1670.354656  	0.147725 
1672.283472  	0.147622 
1674.212288  	0.147020 
1676.141104  	0.147997 
1678.069920  	0.149011 
1679.998736  	0.149497 
1681.927552  	0.148843 
1683.856368  	0.147587 
1685.785184  	0.150144 
1687.714000  	0.150158 
1689.642816  	0.149134 
1691.571632  	0.147455 
1693.500448  	0.144793 
1695.429264  	0.140944 
1697.358080  	0.138083 
1699.286896  	0.134100 
1701.215712  	0.130841 
1703.144528  	0.127764 
1705.073344  	0.122982 
1707.002160  	0.118496 
1708.930976  	0.114553 
1710.859792  	0.109904 
1712.788608  	0.104534 
1714.717424  	0.098580 
1716.646240  	0.092185 
1718.575056  	0.086781 
1720.503872  	0.082217 
1722.432688  	0.077397 
1724.361504  	0.071836 
1726.290320  	0.066689 
1728.219136  	0.061582 
1730.147952  	0.056754 
1732.076768  	0.051588 
1734.005584  	0.046356 
1735.934400  	0.042095 
1737.863216  	0.038472 
1739.792032  	0.033778 
1741.720848  	0.030811 
1743.649664  	0.028114 
1745.578480  	0.025207 
1747.507296  	0.022242 
1749.436112  	0.020628 
1751.364928  	0.019631 
1753.293744  	0.018542 
1755.222560  	0.016902 
1757.151376  	0.016243 
1759.080192  	0.015190 
1761.009008  	0.014481 
1762.937824  	0.014117 
1764.866640  	0.013737 
1766.795456  	0.012964 
1768.724272  	0.012689 
1770.653088  	0.010904 
1772.581904  	0.010673 
1774.510720  	0.011591 
1776.439536  	0.011869 
1778.368352  	0.011462 
1780.297168  	0.011342 
1782.225984  	0.011020 
1784.154800  	0.010904 
1786.083616  	0.010938 
1788.012432  	0.010683 
1789.941248  	0.010040 
1791.870064  	0.009893 
1793.798880  	0.009974 
1795.727696  	0.010304 
1797.656512  	0.009966 
1799.585328  	0.009622 
1801.514144  	0.009726 
1803.442960  	0.009632 
1805.371776  	0.009208 
1807.300592  	0.009149 
1809.229408  	0.008581 
1811.158224  	0.008608 
1813.087040  	0.008633 
1815.015856  	0.008437 
1816.944672  	0.008360 
1818.873488  	0.008700 
1820.802304  	0.008679 
1822.731120  	0.008551 
1824.659936  	0.008265 
1826.588752  	0.008339 
1828.517568  	0.007792 
1830.446384  	0.008384 
1832.375200  	0.008734 
1834.304016  	0.008508 
1836.232832  	0.008306 
1838.161648  	0.008769 
1840.090464  	0.008507 
1842.019280  	0.007822 
1843.948096  	0.007390 
1845.876912  	0.008223 
1847.805728  	0.008467 
1849.734544  	0.008747 
1851.663360  	0.008413 
1853.592176  	0.008280 
1855.520992  	0.008147 
1857.449808  	0.008561 
1859.378624  	0.008501 
1861.307440  	0.008320 
1863.236256  	0.007962 
1865.165072  	0.007899 
1867.093888  	0.007645 
1869.022704  	0.008147 
1870.951520  	0.008141 
1872.880336  	0.008165 
1874.809152  	0.007946 
1876.737968  	0.007953 
1878.666784  	0.007730 
1880.595600  	0.007838 
1882.524416  	0.007954 
1884.453232  	0.008127 
1886.382048  	0.007788 
1888.310864  	0.007767 
1890.239680  	0.008245 
1892.168496  	0.008339 
1894.097312  	0.007764 
1896.026128  	0.008177 
1897.954944  	0.007839 
1899.883760  	0.007685 
1901.812576  	0.007634 
1903.741392  	0.007832 
1905.670208  	0.007579 
1907.599024  	0.007566 
1909.527840  	0.007106 
1911.456656  	0.007317 
1913.385472  	0.007788 
1915.314288  	0.007977 
1917.243104  	0.007434 
1919.171920  	0.007532 
1921.100736  	0.007788 
1923.029552  	0.008468 
1924.958368  	0.007690 
1926.887184  	0.007460 
1928.816000  	0.007195 
1930.744816  	0.007006 
1932.673632  	0.006892 
1934.602448  	0.007241 
1936.531264  	0.007527 
1938.460080  	0.007487 
1940.388896  	0.007294 
1942.317712  	0.007330 
1944.246528  	0.006849 
1946.175344  	0.007814 
1948.104160  	0.007633 
1950.032976  	0.007195 
1951.961792  	0.007146 
1953.890608  	0.007132 
1955.819424  	0.006440 
1957.748240  	0.006623 
1959.677056  	0.006166 
1961.605872  	0.006808 
1963.534688  	0.006444 
1965.463504  	0.007256 
1967.392320  	0.007746 
1969.321136  	0.007410 
1971.249952  	0.007323 
1973.178768  	0.008067 
1975.107584  	0.006632 
1977.036400  	0.006139 
1978.965216  	0.008553 
1980.894032  	0.009658 
1982.822848  	0.008310 
1984.751664  	0.008410 
1986.680480  	0.008391 
1988.609296  	0.008403 
1990.538112  	0.008062 
1992.466928  	0.008667 
1994.395744  	0.008143 
1996.324560  	0.007762 
1998.253376  	0.007338 
2000.182192  	0.006942 
2002.111008  	0.006925 
2004.039824  	0.007658 
2005.968640  	0.007180 
2007.897456  	0.008079 
2009.826272  	0.006999 
2011.755088  	0.005693 
2013.683904  	0.007067 
2015.612720  	0.009053 
2017.541536  	0.008576 
2019.470352  	0.008156 
2021.399168  	0.007433 
2023.327984  	0.007816 
2025.256800  	0.007707 
2027.185616  	0.007721 
2029.114432  	0.007332 
2031.043248  	0.008355 
2032.972064  	0.008930 
2034.900880  	0.010018 
2036.829696  	0.009480 
2038.758512  	0.008581 
2040.687328  	0.008092 
2042.616144  	0.008117 
2044.544960  	0.008260 
2046.473776  	0.009128 
2048.402592  	0.009087 
2050.331408  	0.009533 
2052.260224  	0.008966 
2054.189040  	0.008859 
2056.117856  	0.008530 
2058.046672  	0.008569 
2059.975488  	0.008002 
2061.904304  	0.007596 
2063.833120  	0.008272 
2065.761936  	0.009428 
2067.690752  	0.009397 
2069.619568  	0.009079 
2071.548384  	0.008198 
2073.477200  	0.008404 
2075.406016  	0.008956 
2077.334832  	0.009126 
2079.263648  	0.008763 
2081.192464  	0.009106 
2083.121280  	0.009551 
2085.050096  	0.009142 
2086.978912  	0.008876 
2088.907728  	0.008969 
2090.836544  	0.008514 
2092.765360  	0.008605 
2094.694176  	0.008684 
2096.622992  	0.008440 
2098.551808  	0.008439 
2100.480624  	0.008691 
2102.409440  	0.008485 
2104.338256  	0.008962 
2106.267072  	0.009029 
2108.195888  	0.008580 
2110.124704  	0.008797 
2112.053520  	0.009374 
2113.982336  	0.009184 
2115.911152  	0.009149 
2117.839968  	0.008579 
2119.768784  	0.008093 
2121.697600  	0.008015 
2123.626416  	0.007847 
2125.555232  	0.007162 
2127.484048  	0.007570 
2129.412864  	0.007824 
2131.341680  	0.007410 
2133.270496  	0.007936 
2135.199312  	0.008209 
2137.128128  	0.007636 
2139.056944  	0.007758 
2140.985760  	0.007224 
2142.914576  	0.007853 
2144.843392  	0.008072 
2146.772208  	0.007899 
2148.701024  	0.007196 
2150.629840  	0.007297 
2152.558656  	0.007434 
2154.487472  	0.006668 
2156.416288  	0.006531 
2158.345104  	0.009506 
2160.273920  	0.011269 
2162.202736  	0.011532 
2164.131552  	0.010989 
2166.060368  	0.012452 
2167.989184  	0.010944 
2169.918000  	0.009021 
2171.846816  	0.008559 
2173.775632  	0.008859 
2175.704448  	0.010145 
2177.633264  	0.011259 
2179.562080  	0.010424 
2181.490896  	0.009773 
2183.419712  	0.009761 
2185.348528  	0.010800 
2187.277344  	0.010751 
2189.206160  	0.010617 
2191.134976  	0.010924 
2193.063792  	0.011959 
2194.992608  	0.011879 
2196.921424  	0.011348 
2198.850240  	0.011117 
2200.779056  	0.010429 
2202.707872  	0.010193 
2204.636688  	0.010658 
2206.565504  	0.010463 
2208.494320  	0.010406 
2210.423136  	0.009503 
2212.351952  	0.009408 
2214.280768  	0.009611 
2216.209584  	0.009870 
2218.138400  	0.009904 
2220.067216  	0.009931 
2221.996032  	0.009304 
2223.924848  	0.009132 
2225.853664  	0.009483 
2227.782480  	0.009897 
2229.711296  	0.010517 
2231.640112  	0.010547 
2233.568928  	0.009335 
2235.497744  	0.009096 
2237.426560  	0.009245 
2239.355376  	0.009361 
2241.284192  	0.009028 
2243.213008  	0.009065 
2245.141824  	0.009022 
2247.070640  	0.008802 
2248.999456  	0.008935 
2250.928272  	0.009381 
2252.857088  	0.009220 
2254.785904  	0.008932 
2256.714720  	0.009192 
2258.643536  	0.009823 
2260.572352  	0.009637 
2262.501168  	0.009536 
2264.429984  	0.009551 
2266.358800  	0.010051 
2268.287616  	0.009773 
2270.216432  	0.009607 
2272.145248  	0.009487 
2274.074064  	0.009633 
2276.002880  	0.009921 
2277.931696  	0.010377 
2279.860512  	0.010751 
2281.789328  	0.010865 
2283.718144  	0.010633 
2285.646960  	0.010589 
2287.575776  	0.010625 
2289.504592  	0.010501 
2291.433408  	0.010187 
2293.362224  	0.010101 
2295.291040  	0.010112 
2297.219856  	0.010366 
2299.148672  	0.010609 
2301.077488  	0.010697 
2303.006304  	0.010747 
2304.935120  	0.010595 
2306.863936  	0.010297 
2308.792752  	0.010248 
2310.721568  	0.010251 
2312.650384  	0.009905 
2314.579200  	0.009404 
2316.508016  	0.009101 
2318.436832  	0.008538 
2320.365648  	0.008030 
2322.294464  	0.007553 
2324.223280  	0.006610 
2326.152096  	0.004965 
2328.080912  	0.003801 
2330.009728  	0.003092 
2331.938544  	0.002550 
2333.867360  	0.001414 
2335.796176  	0.000653 
2337.724992  	0.000297 
2339.653808  	0.000120 
2341.582624  	0.000186 
2343.511440  	0.001551 
2345.440256  	0.003835 
2347.369072  	0.006030 
2349.297888  	0.005839 
2351.226704  	0.003653 
2353.155520  	0.001489 
2355.084336  	-0.000486 
2357.013152  	-0.001933 
2358.941968  	-0.002680 
2360.870784  	-0.003498 
2362.799600  	-0.003122 
2364.728416  	-0.001807 
2366.657232  	-0.000091 
2368.586048  	0.001413 
2370.514864  	0.003409 
2372.443680  	0.005366 
2374.372496  	0.007305 
2376.301312  	0.008805 
2378.230128  	0.010065 
2380.158944  	0.010556 
2382.087760  	0.010638 
2384.016576  	0.010575 
2385.945392  	0.010528 
2387.874208  	0.010286 
2389.803024  	0.010064 
2391.731840  	0.009878 
2393.660656  	0.009926 
2395.589472  	0.010083 
2397.518288  	0.010224 
2399.447104  	0.010393 
2401.375920  	0.010346 
2403.304736  	0.010290 
2405.233552  	0.010384 
2407.162368  	0.010453 
2409.091184  	0.010348 
2411.020000  	0.010437 
2412.948816  	0.010759 
2414.877632  	0.010698 
2416.806448  	0.010689 
2418.735264  	0.010650 
2420.664080  	0.010623 
2422.592896  	0.010503 
2424.521712  	0.010606 
2426.450528  	0.010831 
2428.379344  	0.010849 
2430.308160  	0.010824 
2432.236976  	0.010995 
2434.165792  	0.011286 
2436.094608  	0.011648 
2438.023424  	0.011717 
2439.952240  	0.011870 
2441.881056  	0.011943 
2443.809872  	0.011718 
2445.738688  	0.011739 
2447.667504  	0.011736 
2449.596320  	0.011671 
2451.525136  	0.011770 
2453.453952  	0.012011 
2455.382768  	0.012334 
2457.311584  	0.012335 
2459.240400  	0.012327 
2461.169216  	0.012356 
2463.098032  	0.012321 
2465.026848  	0.012222 
2466.955664  	0.012228 
2468.884480  	0.012098 
2470.813296  	0.012189 
2472.742112  	0.012120 
2474.670928  	0.012021 
2476.599744  	0.012059 
2478.528560  	0.012233 
2480.457376  	0.012295 
2482.386192  	0.012304 
2484.315008  	0.012395 
2486.243824  	0.012539 
2488.172640  	0.012442 
2490.101456  	0.012725 
2492.030272  	0.013188 
2493.959088  	0.012992 
2495.887904  	0.012476 
2497.816720  	0.012517 
2499.745536  	0.012725 
2501.674352  	0.013049 
2503.603168  	0.013063 
2505.531984  	0.013155 
2507.460800  	0.013272 
2509.389616  	0.013216 
2511.318432  	0.013042 
2513.247248  	0.013108 
2515.176064  	0.013269 
2517.104880  	0.013568 
2519.033696  	0.013566 
2520.962512  	0.013594 
2522.891328  	0.013938 
2524.820144  	0.013928 
2526.748960  	0.013745 
2528.677776  	0.013908 
2530.606592  	0.013927 
2532.535408  	0.013974 
2534.464224  	0.014215 
2536.393040  	0.014187 
2538.321856  	0.014005 
2540.250672  	0.014136 
2542.179488  	0.014218 
2544.108304  	0.014394 
2546.037120  	0.014285 
2547.965936  	0.014498 
2549.894752  	0.014753 
2551.823568  	0.014841 
2553.752384  	0.014921 
2555.681200  	0.015102 
2557.610016  	0.015113 
2559.538832  	0.015008 
2561.467648  	0.015099 
2563.396464  	0.015359 
2565.325280  	0.015473 
2567.254096  	0.015431 
2569.182912  	0.015214 
2571.111728  	0.015227 
2573.040544  	0.015217 
2574.969360  	0.015156 
2576.898176  	0.015315 
2578.826992  	0.015705 
2580.755808  	0.015760 
2582.684624  	0.015642 
2584.613440  	0.015516 
2586.542256  	0.015717 
2588.471072  	0.016013 
2590.399888  	0.015998 
2592.328704  	0.015994 
2594.257520  	0.016263 
2596.186336  	0.016503 
2598.115152  	0.016564 
2600.043968  	0.016423 
2601.972784  	0.016462 
2603.901600  	0.016646 
2605.830416  	0.016746 
2607.759232  	0.016586 
2609.688048  	0.016779 
2611.616864  	0.017098 
2613.545680  	0.017145 
2615.474496  	0.017006 
2617.403312  	0.016961 
2619.332128  	0.017088 
2621.260944  	0.017225 
2623.189760  	0.017378 
2625.118576  	0.017458 
2627.047392  	0.017543 
2628.976208  	0.017847 
2630.905024  	0.017938 
2632.833840  	0.018049 
2634.762656  	0.018214 
2636.691472  	0.018188 
2638.620288  	0.018188 
2640.549104  	0.018362 
2642.477920  	0.018340 
2644.406736  	0.018354 
2646.335552  	0.018606 
2648.264368  	0.018848 
2650.193184  	0.018896 
2652.122000  	0.019002 
2654.050816  	0.019174 
2655.979632  	0.019125 
2657.908448  	0.019188 
2659.837264  	0.019342 
2661.766080  	0.019305 
2663.694896  	0.019259 
2665.623712  	0.019108 
2667.552528  	0.019091 
2669.481344  	0.019306 
2671.410160  	0.019576 
2673.338976  	0.019740 
2675.267792  	0.019849 
2677.196608  	0.020020 
2679.125424  	0.020207 
2681.054240  	0.020160 
2682.983056  	0.020115 
2684.911872  	0.020293 
2686.840688  	0.020442 
2688.769504  	0.020504 
2690.698320  	0.020547 
2692.627136  	0.020686 
2694.555952  	0.020817 
2696.484768  	0.020808 
2698.413584  	0.020868 
2700.342400  	0.020894 
2702.271216  	0.021008 
2704.200032  	0.021280 
2706.128848  	0.021437 
2708.057664  	0.021542 
2709.986480  	0.021623 
2711.915296  	0.021612 
2713.844112  	0.021671 
2715.772928  	0.021829 
2717.701744  	0.021958 
2719.630560  	0.021925 
2721.559376  	0.021949 
2723.488192  	0.022062 
2725.417008  	0.022374 
2727.345824  	0.022521 
2729.274640  	0.022471 
2731.203456  	0.022480 
2733.132272  	0.022654 
2735.061088  	0.022839 
2736.989904  	0.022975 
2738.918720  	0.023056 
2740.847536  	0.022978 
2742.776352  	0.022967 
2744.705168  	0.023120 
2746.633984  	0.023245 
2748.562800  	0.023443 
2750.491616  	0.023563 
2752.420432  	0.023470 
2754.349248  	0.023505 
2756.278064  	0.023629 
2758.206880  	0.023665 
2760.135696  	0.023793 
2762.064512  	0.023849 
2763.993328  	0.023872 
2765.922144  	0.023957 
2767.850960  	0.024018 
2769.779776  	0.024050 
2771.708592  	0.024116 
2773.637408  	0.023961 
2775.566224  	0.023961 
2777.495040  	0.024119 
2779.423856  	0.024232 
2781.352672  	0.024396 
2783.281488  	0.024529 
2785.210304  	0.024497 
2787.139120  	0.024659 
2789.067936  	0.024837 
2790.996752  	0.024865 
2792.925568  	0.024968 
2794.854384  	0.025072 
2796.783200  	0.025107 
2798.712016  	0.025113 
2800.640832  	0.025169 
2802.569648  	0.025352 
2804.498464  	0.025471 
2806.427280  	0.025554 
2808.356096  	0.025633 
2810.284912  	0.025796 
2812.213728  	0.025746 
2814.142544  	0.025729 
2816.071360  	0.025963 
2818.000176  	0.026008 
2819.928992  	0.025922 
2821.857808  	0.025906 
2823.786624  	0.026006 
2825.715440  	0.026068 
2827.644256  	0.025932 
2829.573072  	0.025868 
2831.501888  	0.025771 
2833.430704  	0.025641 
2835.359520  	0.025587 
2837.288336  	0.025479 
2839.217152  	0.025299 
2841.145968  	0.025158 
2843.074784  	0.025042 
2845.003600  	0.025016 
2846.932416  	0.025099 
2848.861232  	0.025105 
2850.790048  	0.024982 
2852.718864  	0.024793 
2854.647680  	0.024566 
2856.576496  	0.024448 
2858.505312  	0.024361 
2860.434128  	0.024158 
2862.362944  	0.023902 
2864.291760  	0.023571 
2866.220576  	0.023294 
2868.149392  	0.023510 
2870.078208  	0.023851 
2872.007024  	0.023982 
2873.935840  	0.024137 
2875.864656  	0.024326 
2877.793472  	0.024539 
2879.722288  	0.024771 
2881.651104  	0.024753 
2883.579920  	0.024586 
2885.508736  	0.024628 
2887.437552  	0.024859 
2889.366368  	0.024936 
2891.295184  	0.024926 
2893.224000  	0.024932 
2895.152816  	0.025095 
2897.081632  	0.024865 
2899.010448  	0.024086 
2900.939264  	0.023682 
2902.868080  	0.024227 
2904.796896  	0.024828 
2906.725712  	0.025069 
2908.654528  	0.025237 
2910.583344  	0.025594 
2912.512160  	0.026337 
2914.440976  	0.027158 
2916.369792  	0.027580 
2918.298608  	0.027861 
2920.227424  	0.028267 
2922.156240  	0.028867 
2924.085056  	0.029383 
2926.013872  	0.029921 
2927.942688  	0.030640 
2929.871504  	0.031413 
2931.800320  	0.031950 
2933.729136  	0.032280 
2935.657952  	0.032489 
2937.586768  	0.032840 
2939.515584  	0.033092 
2941.444400  	0.033245 
2943.373216  	0.033460 
2945.302032  	0.033540 
2947.230848  	0.033529 
2949.159664  	0.033422 
2951.088480  	0.033092 
2953.017296  	0.033057 
2954.946112  	0.032641 
2956.874928  	0.032052 
2958.803744  	0.031572 
2960.732560  	0.031231 
2962.661376  	0.030966 
2964.590192  	0.030472 
2966.519008  	0.029908 
2968.447824  	0.029436 
2970.376640  	0.029160 
2972.305456  	0.028818 
2974.234272  	0.028676 
2976.163088  	0.028508 
2978.091904  	0.028447 
2980.020720  	0.028496 
2981.949536  	0.028433 
2983.878352  	0.028112 
2985.807168  	0.027724 
2987.735984  	0.027626 
2989.664800  	0.027930 
2991.593616  	0.029040 
2993.522432  	0.029620 
2995.451248  	0.029827 
2997.380064  	0.030273 
2999.308880  	0.030731 
3001.237696  	0.031270 
3003.166512  	0.031777 
3005.095328  	0.032214 
3007.024144  	0.032905 
3008.952960  	0.033567 
3010.881776  	0.034205 
3012.810592  	0.034816 
3014.739408  	0.035245 
3016.668224  	0.035852 
3018.597040  	0.036488 
3020.525856  	0.036811 
3022.454672  	0.037191 
3024.383488  	0.037648 
3026.312304  	0.038087 
3028.241120  	0.038383 
3030.169936  	0.038615 
3032.098752  	0.039126 
3034.027568  	0.039448 
3035.956384  	0.039607 
3037.885200  	0.039832 
3039.814016  	0.040261 
3041.742832  	0.040695 
3043.671648  	0.040966 
3045.600464  	0.041158 
3047.529280  	0.041350 
3049.458096  	0.041587 
3051.386912  	0.041836 
3053.315728  	0.042146 
3055.244544  	0.042455 
3057.173360  	0.042894 
3059.102176  	0.043193 
3061.030992  	0.043472 
3062.959808  	0.043690 
3064.888624  	0.043942 
3066.817440  	0.044342 
3068.746256  	0.044627 
3070.675072  	0.044973 
3072.603888  	0.045386 
3074.532704  	0.045756 
3076.461520  	0.046159 
3078.390336  	0.046381 
3080.319152  	0.046590 
3082.247968  	0.046946 
3084.176784  	0.047328 
3086.105600  	0.047449 
3088.034416  	0.047599 
3089.963232  	0.048012 
3091.892048  	0.048388 
3093.820864  	0.048575 
3095.749680  	0.048827 
3097.678496  	0.049000 
3099.607312  	0.049220 
3101.536128  	0.049462 
3103.464944  	0.049950 
3105.393760  	0.050308 
3107.322576  	0.050487 
3109.251392  	0.050805 
3111.180208  	0.051091 
3113.109024  	0.051204 
3115.037840  	0.051431 
3116.966656  	0.051740 
3118.895472  	0.051908 
3120.824288  	0.051971 
3122.753104  	0.052200 
3124.681920  	0.052398 
3126.610736  	0.052472 
3128.539552  	0.052673 
3130.468368  	0.052727 
3132.397184  	0.052785 
3134.326000  	0.053002 
3136.254816  	0.053340 
3138.183632  	0.053582 
3140.112448  	0.053595 
3142.041264  	0.053768 
3143.970080  	0.054062 
3145.898896  	0.054132 
3147.827712  	0.054241 
3149.756528  	0.054520 
3151.685344  	0.054982 
3153.614160  	0.055331 
3155.542976  	0.055401 
3157.471792  	0.055429 
3159.400608  	0.055815 
3161.329424  	0.056247 
3163.258240  	0.056534 
3165.187056  	0.056660 
3167.115872  	0.056771 
3169.044688  	0.056969 
3170.973504  	0.057065 
3172.902320  	0.057138 
3174.831136  	0.057348 
3176.759952  	0.057524 
3178.688768  	0.057886 
3180.617584  	0.058093 
3182.546400  	0.057858 
3184.475216  	0.058074 
3186.404032  	0.058237 
3188.332848  	0.058107 
3190.261664  	0.058324 
3192.190480  	0.058355 
3194.119296  	0.058265 
3196.048112  	0.058390 
3197.976928  	0.058533 
3199.905744  	0.058505 
3201.834560  	0.058587 
3203.763376  	0.058655 
3205.692192  	0.058587 
3207.621008  	0.058433 
3209.549824  	0.058267 
3211.478640  	0.058102 
3213.407456  	0.057888 
3215.336272  	0.058049 
3217.265088  	0.058114 
3219.193904  	0.057787 
3221.122720  	0.057422 
3223.051536  	0.057213 
3224.980352  	0.057082 
3226.909168  	0.056875 
3228.837984  	0.056733 
3230.766800  	0.056791 
3232.695616  	0.056873 
3234.624432  	0.056767 
3236.553248  	0.056516 
3238.482064  	0.056428 
3240.410880  	0.056331 
3242.339696  	0.056274 
3244.268512  	0.056235 
3246.197328  	0.056235 
3248.126144  	0.056201 
3250.054960  	0.056125 
3251.983776  	0.055976 
3253.912592  	0.056176 
3255.841408  	0.056237 
3257.770224  	0.056282 
3259.699040  	0.056425 
3261.627856  	0.056562 
3263.556672  	0.056581 
3265.485488  	0.056537 
3267.414304  	0.056590 
3269.343120  	0.056707 
3271.271936  	0.056841 
3273.200752  	0.056979 
3275.129568  	0.057201 
3277.058384  	0.057136 
3278.987200  	0.057123 
3280.916016  	0.057239 
3282.844832  	0.057338 
3284.773648  	0.057305 
3286.702464  	0.057402 
3288.631280  	0.057594 
3290.560096  	0.057655 
3292.488912  	0.057830 
3294.417728  	0.057879 
3296.346544  	0.058029 
3298.275360  	0.058205 
3300.204176  	0.058401 
3302.132992  	0.058582 
3304.061808  	0.058714 
3305.990624  	0.058956 
3307.919440  	0.059035 
3309.848256  	0.059038 
3311.777072  	0.059118 
3313.705888  	0.059387 
3315.634704  	0.059756 
3317.563520  	0.060043 
3319.492336  	0.060141 
3321.421152  	0.060228 
3323.349968  	0.060413 
3325.278784  	0.060597 
3327.207600  	0.060492 
3329.136416  	0.060363 
3331.065232  	0.060300 
3332.994048  	0.060502 
3334.922864  	0.060605 
3336.851680  	0.060433 
3338.780496  	0.060367 
3340.709312  	0.060260 
3342.638128  	0.060056 
3344.566944  	0.059937 
3346.495760  	0.059751 
3348.424576  	0.059601 
3350.353392  	0.059549 
3352.282208  	0.059300 
3354.211024  	0.059170 
3356.139840  	0.059127 
3358.068656  	0.058870 
3359.997472  	0.058615 
3361.926288  	0.058382 
3363.855104  	0.058061 
3365.783920  	0.057800 
3367.712736  	0.057626 
3369.641552  	0.057163 
3371.570368  	0.056798 
3373.499184  	0.056690 
3375.428000  	0.056340 
3377.356816  	0.056073 
3379.285632  	0.055862 
3381.214448  	0.055661 
3383.143264  	0.055410 
3385.072080  	0.055351 
3387.000896  	0.055046 
3388.929712  	0.054678 
3390.858528  	0.054414 
3392.787344  	0.054211 
3394.716160  	0.053841 
3396.644976  	0.053563 
3398.573792  	0.053320 
3400.502608  	0.052762 
3402.431424  	0.052259 
3404.360240  	0.052040 
3406.289056  	0.051883 
3408.217872  	0.051408 
3410.146688  	0.051055 
3412.075504  	0.051163 
3414.004320  	0.051084 
3415.933136  	0.050474 
3417.861952  	0.049952 
3419.790768  	0.049920 
3421.719584  	0.049721 
3423.648400  	0.049148 
3425.577216  	0.048806 
3427.506032  	0.048575 
3429.434848  	0.048068 
3431.363664  	0.047818 
3433.292480  	0.047640 
3435.221296  	0.047387 
3437.150112  	0.047017 
3439.078928  	0.046564 
3441.007744  	0.046291 
3442.936560  	0.046238 
3444.865376  	0.045666 
3446.794192  	0.045019 
3448.723008  	0.044763 
3450.651824  	0.044336 
3452.580640  	0.043913 
3454.509456  	0.043502 
3456.438272  	0.043189 
3458.367088  	0.042887 
3460.295904  	0.042482 
3462.224720  	0.042106 
3464.153536  	0.041588 
3466.082352  	0.041231 
3468.011168  	0.040921 
3469.939984  	0.040526 
3471.868800  	0.040036 
3473.797616  	0.039639 
3475.726432  	0.039214 
3477.655248  	0.038649 
3479.584064  	0.038240 
3481.512880  	0.037902 
3483.441696  	0.037313 
3485.370512  	0.036619 
3487.299328  	0.036433 
3489.228144  	0.036193 
3491.156960  	0.035453 
3493.085776  	0.035040 
3495.014592  	0.034685 
3496.943408  	0.034287 
3498.872224  	0.033890 
3500.801040  	0.033627 
3502.729856  	0.033257 
3504.658672  	0.032714 
3506.587488  	0.031962 
3508.516304  	0.031712 
3510.445120  	0.031758 
3512.373936  	0.031629 
3514.302752  	0.031268 
3516.231568  	0.030717 
3518.160384  	0.030231 
3520.089200  	0.029911 
3522.018016  	0.029540 
3523.946832  	0.029426 
3525.875648  	0.028932 
3527.804464  	0.028470 
3529.733280  	0.028302 
3531.662096  	0.027977 
3533.590912  	0.027478 
3535.519728  	0.027297 
3537.448544  	0.027247 
3539.377360  	0.026765 
3541.306176  	0.026118 
3543.234992  	0.025782 
3545.163808  	0.026193 
3547.092624  	0.026073 
3549.021440  	0.024951 
3550.950256  	0.024145 
3552.879072  	0.024296 
3554.807888  	0.024199 
3556.736704  	0.023591 
3558.665520  	0.023257 
3560.594336  	0.023348 
3562.523152  	0.022770 
3564.451968  	0.021890 
3566.380784  	0.022079 
3568.309600  	0.022727 
3570.238416  	0.021877 
3572.167232  	0.020831 
3574.096048  	0.020361 
3576.024864  	0.020197 
3577.953680  	0.019823 
3579.882496  	0.019445 
3581.811312  	0.019080 
3583.740128  	0.018200 
3585.668944  	0.017394 
3587.597760  	0.018232 
3589.526576  	0.018397 
3591.455392  	0.016767 
3593.384208  	0.016208 
3595.313024  	0.016277 
3597.241840  	0.015571 
3599.170656  	0.014562 
3601.099472  	0.014237 
3603.028288  	0.014108 
3604.957104  	0.013296 
3606.885920  	0.012468 
3608.814736  	0.012970 
3610.743552  	0.012491 
3612.672368  	0.011522 
3614.601184  	0.011361 
3616.530000  	0.010214 
3618.458816  	0.009529 
3620.387632  	0.010324 
3622.316448  	0.009789 
3624.245264  	0.008659 
3626.174080  	0.007083 
3628.102896  	0.006069 
3630.031712  	0.008234 
3631.960528  	0.007710 
3633.889344  	0.006831 
3635.818160  	0.006250 
3637.746976  	0.005628 
3639.675792  	0.005276 
3641.604608  	0.004908 
3643.533424  	0.004120 
3645.462240  	0.002233 
3647.391056  	0.000759 
3649.319872  	0.001087 
3651.248688  	0.003275 
3653.177504  	0.002763 
3655.106320  	0.000948 
3657.035136  	0.001278 
3658.963952  	0.001096 
3660.892768  	0.000483 
3662.821584  	0.000029 
3664.750400  	-0.000477 
3666.679216  	-0.001631 
3668.608032  	-0.003161 
3670.536848  	-0.002359 
3672.465664  	-0.002315 
3674.394480  	-0.004563 
3676.323296  	-0.002278 
3678.252112  	-0.000961 
3680.180928  	-0.000628 
3682.109744  	-0.000838 
3684.038560  	-0.001734 
3685.967376  	-0.003180 
3687.896192  	-0.004360 
3689.825008  	-0.003163 
3691.753824  	-0.001857 
3693.682640  	-0.001360 
3695.611456  	-0.001597 
3697.540272  	-0.001495 
3699.469088  	-0.001935 
3701.397904  	-0.001495 
3703.326720  	-0.000577 
3705.255536  	-0.000953 
3707.184352  	-0.001996 
3709.113168  	-0.002799 
3711.041984  	-0.002287 
3712.970800  	-0.000442 
3714.899616  	0.000088 
3716.828432  	-0.000540 
3718.757248  	-0.001084 
3720.686064  	-0.001537 
3722.614880  	-0.000943 
3724.543696  	-0.000346 
3726.472512  	0.000111 
3728.401328  	-0.000472 
3730.330144  	-0.002729 
3732.258960  	-0.003719 
3734.187776  	-0.002528 
3736.116592  	-0.000070 
3738.045408  	-0.000074 
3739.974224  	-0.001148 
3741.903040  	-0.002353 
3743.831856  	-0.002120 
3745.760672  	0.000313 
3747.689488  	-0.002302 
3749.618304  	-0.003457 
3751.547120  	-0.001782 
3753.475936  	0.000338 
3755.404752  	-0.000371 
3757.333568  	-0.001211 
3759.262384  	-0.000975 
3761.191200  	0.000146 
3763.120016  	-0.000325 
3765.048832  	-0.000698 
3766.977648  	-0.000678 
3768.906464  	-0.001179 
3770.835280  	0.000055 
3772.764096  	0.000531 
3774.692912  	0.000028 
3776.621728  	-0.000942 
3778.550544  	-0.001429 
3780.479360  	-0.000320 
3782.408176  	-0.000307 
3784.336992  	-0.000505 
3786.265808  	-0.000158 
3788.194624  	-0.000153 
3790.123440  	-0.000312 
3792.052256  	-0.000416 
3793.981072  	-0.001083 
3795.909888  	-0.001393 
3797.838704  	-0.001175 
3799.767520  	-0.002867 
3801.696336  	-0.002131 
3803.625152  	-0.000707 
3805.553968  	-0.001917 
3807.482784  	-0.000623 
3809.411600  	0.000264 
3811.340416  	-0.000078 
3813.269232  	-0.001197 
3815.198048  	-0.002392 
3817.126864  	-0.001403 
3819.055680  	-0.002654 
3820.984496  	-0.002252 
3822.913312  	0.000080 
3824.842128  	-0.000738 
3826.770944  	-0.000736 
3828.699760  	-0.000655 
3830.628576  	-0.001392 
3832.557392  	-0.001336 
3834.486208  	-0.001928 
3836.415024  	-0.002785 
3838.343840  	-0.001921 
3840.272656  	-0.000855 
3842.201472  	-0.000840 
3844.130288  	-0.000484 
3846.059104  	-0.000173 
3847.987920  	-0.000896 
3849.916736  	-0.002367 
3851.845552  	-0.004307 
3853.774368  	-0.001392 
3855.703184  	0.000777 
3857.632000  	-0.000168 
3859.560816  	-0.001087 
3861.489632  	-0.001622 
3863.418448  	-0.001592 
3865.347264  	-0.000669 
3867.276080  	-0.001263 
3869.204896  	-0.001675 
3871.133712  	0.000274 
3873.062528  	-0.000474 
3874.991344  	0.000194 
3876.920160  	-0.000234 
3878.848976  	-0.001236 
3880.777792  	-0.000251 
3882.706608  	-0.000119 
3884.635424  	-0.001086 
3886.564240  	0.000214 
3888.493056  	-0.000454 
3890.421872  	-0.001114 
3892.350688  	0.000169 
3894.279504  	0.000306 
3896.208320  	-0.000599 
3898.137136  	-0.001120 
3900.065952  	-0.000730 
3901.994768  	-0.000540 
3903.923584  	0.000230 
3905.852400  	0.000919 
3907.781216  	0.000214 
3909.710032  	-0.000276 
3911.638848  	-0.000267 
3913.567664  	-0.000439 
3915.496480  	-0.000380 
3917.425296  	0.000595 
3919.354112  	0.000705 
3921.282928  	0.000368 
3923.211744  	0.000066 
3925.140560  	0.000343 
3927.069376  	-0.000002 
3928.998192  	-0.000397 
3930.927008  	0.000146 
3932.855824  	0.000902 
3934.784640  	0.000551 
3936.713456  	0.000159 
3938.642272  	0.000065 
3940.571088  	-0.000244 
3942.499904  	0.000393 
3944.428720  	0.000679 
3946.357536  	0.000201 
3948.286352  	0.000264 
3950.215168  	0.000248 
3952.143984  	0.000014 
3954.072800  	-0.000272 
3956.001616  	-0.000278 
3957.930432  	0.000096 
3959.859248  	0.000281 
3961.788064  	0.000255 
3963.716880  	0.000213 
3965.645696  	-0.000009 
3967.574512  	0.000112 
3969.503328  	0.000136 
3971.432144  	-0.000011 
3973.360960  	-0.000059 
3975.289776  	0.000084 
3977.218592  	0.000170 
3979.147408  	0.000210 
3981.076224  	0.000045 
3983.005040  	-0.000067 
3984.933856  	0.000023 
3986.862672  	0.000180 
3988.791488  	0.000083 
3990.720304  	0.000101 
3992.649120  	0.000123 
3994.577936  	-0.000006 
3996.506752  	-0.000128 
3998.435568  	-0.000111 
4000.364384  	-0.000158 