##TITLE=No Description
##DATA TYPE=INFRARED SPECTRUM
##XUNITS=1/CM
##YUNITS=Abs
399.264912  	0.645359 
401.193728  	0.626101 
403.122544  	0.607309 
405.051360  	0.597477 
406.980176  	0.593466 
408.908992  	0.588044 
410.837808  	0.585379 
412.766624  	0.580584 
414.695440  	0.582614 
416.624256  	0.580521 
418.553072  	0.586516 
420.481888  	0.573116 
422.410704  	0.569847 
424.339520  	0.561086 
426.268336  	0.565021 
428.197152  	0.553448 
430.125968  	0.543999 
432.054784  	0.534712 
433.983600  	0.536894 
435.912416  	0.535204 
437.841232  	0.536526 
439.770048  	0.533481 
441.698864  	0.530817 
443.627680  	0.526247 
445.556496  	0.525531 
447.485312  	0.517478 
449.414128  	0.517600 
451.342944  	0.520310 
453.271760  	0.520531 
455.200576  	0.513376 
457.129392  	0.510467 
459.058208  	0.509670 
460.987024  	0.513343 
462.915840  	0.516615 
464.844656  	0.521505 
466.773472  	0.513856 
468.702288  	0.512100 
470.631104  	0.507714 
472.559920  	0.506658 
474.488736  	0.506550 
476.417552  	0.507574 
478.346368  	0.506028 
480.275184  	0.503893 
482.204000  	0.500160 
484.132816  	0.504881 
486.061632  	0.503433 
487.990448  	0.499856 
489.919264  	0.497898 
491.848080  	0.499767 
493.776896  	0.499023 
495.705712  	0.497270 
497.634528  	0.495071 
499.563344  	0.496349 
501.492160  	0.493368 
503.420976  	0.491289 
505.349792  	0.489905 
507.278608  	0.489348 
509.207424  	0.488825 
511.136240  	0.492403 
513.065056  	0.494503 
514.993872  	0.494380 
516.922688  	0.492385 
518.851504  	0.492424 
520.780320  	0.488745 
522.709136  	0.488690 
524.637952  	0.487184 
526.566768  	0.485762 
528.495584  	0.483629 
530.424400  	0.480950 
532.353216  	0.477100 
534.282032  	0.475689 
536.210848  	0.471706 
538.139664  	0.469512 
540.068480  	0.465524 
541.997296  	0.461288 
543.926112  	0.455363 
545.854928  	0.454694 
547.783744  	0.453218 
549.712560  	0.450309 
551.641376  	0.445838 
553.570192  	0.443853 
555.499008  	0.440839 
557.427824  	0.438951 
559.356640  	0.435092 
561.285456  	0.431818 
563.214272  	0.428814 
565.143088  	0.426470 
567.071904  	0.422441 
569.000720  	0.418612 
570.929536  	0.415566 
572.858352  	0.413501 
574.787168  	0.410508 
576.715984  	0.407858 
578.644800  	0.403884 
580.573616  	0.400455 
582.502432  	0.396733 
584.431248  	0.394990 
586.360064  	0.393146 
588.288880  	0.391530 
590.217696  	0.388617 
592.146512  	0.386805 
594.075328  	0.385077 
596.004144  	0.383156 
597.932960  	0.381545 
599.861776  	0.381329 
601.790592  	0.379213 
603.719408  	0.377402 
605.648224  	0.375522 
607.577040  	0.374768 
609.505856  	0.373843 
611.434672  	0.372218 
613.363488  	0.369414 
615.292304  	0.367859 
617.221120  	0.366252 
619.149936  	0.364744 
621.078752  	0.362374 
623.007568  	0.359978 
624.936384  	0.357593 
626.865200  	0.356596 
628.794016  	0.354982 
630.722832  	0.353151 
632.651648  	0.351607 
634.580464  	0.350836 
636.509280  	0.350548 
638.438096  	0.349997 
640.366912  	0.348568 
642.295728  	0.346635 
644.224544  	0.343773 
646.153360  	0.340863 
648.082176  	0.337440 
650.010992  	0.334842 
651.939808  	0.331439 
653.868624  	0.328158 
655.797440  	0.324627 
657.726256  	0.322296 
659.655072  	0.318919 
661.583888  	0.315083 
663.512704  	0.311747 
665.441520  	0.309390 
667.370336  	0.304220 
669.299152  	0.300226 
671.227968  	0.300160 
673.156784  	0.298172 
675.085600  	0.295443 
677.014416  	0.293389 
678.943232  	0.291392 
680.872048  	0.289520 
682.800864  	0.287734 
684.729680  	0.286111 
686.658496  	0.284077 
688.587312  	0.282360 
690.516128  	0.280255 
692.444944  	0.278924 
694.373760  	0.277335 
696.302576  	0.275659 
698.231392  	0.273134 
700.160208  	0.270789 
702.089024  	0.268501 
704.017840  	0.266960 
705.946656  	0.264476 
707.875472  	0.261484 
709.804288  	0.259244 
711.733104  	0.257739 
713.661920  	0.256133 
715.590736  	0.255135 
717.519552  	0.254251 
719.448368  	0.254007 
721.377184  	0.253990 
723.306000  	0.254020 
725.234816  	0.253370 
727.163632  	0.251657 
729.092448  	0.248805 
731.021264  	0.246401 
732.950080  	0.244026 
734.878896  	0.241358 
736.807712  	0.239060 
738.736528  	0.237439 
740.665344  	0.235944 
742.594160  	0.234161 
744.522976  	0.232321 
746.451792  	0.230942 
748.380608  	0.229734 
750.309424  	0.228702 
752.238240  	0.227533 
754.167056  	0.227020 
756.095872  	0.225776 
758.024688  	0.224302 
759.953504  	0.223041 
761.882320  	0.222290 
763.811136  	0.221602 
765.739952  	0.220698 
767.668768  	0.219182 
769.597584  	0.217621 
771.526400  	0.217011 
773.455216  	0.217862 
775.384032  	0.219056 
777.312848  	0.220560 
779.241664  	0.222168 
781.170480  	0.222344 
783.099296  	0.219801 
785.028112  	0.215529 
786.956928  	0.210665 
788.885744  	0.206611 
790.814560  	0.203245 
792.743376  	0.200770 
794.672192  	0.198717 
796.601008  	0.197331 
798.529824  	0.195663 
800.458640  	0.193115 
802.387456  	0.190403 
804.316272  	0.188658 
806.245088  	0.187447 
808.173904  	0.186472 
810.102720  	0.185641 
812.031536  	0.184781 
813.960352  	0.183819 
815.889168  	0.183402 
817.817984  	0.182679 
819.746800  	0.181718 
821.675616  	0.180847 
823.604432  	0.180126 
825.533248  	0.178999 
827.462064  	0.177705 
829.390880  	0.176616 
831.319696  	0.175586 
833.248512  	0.174133 
835.177328  	0.172257 
837.106144  	0.170206 
839.034960  	0.167793 
840.963776  	0.165144 
842.892592  	0.162631 
844.821408  	0.159972 
846.750224  	0.157346 
848.679040  	0.155245 
850.607856  	0.153274 
852.536672  	0.151617 
854.465488  	0.149964 
856.394304  	0.148285 
858.323120  	0.146731 
860.251936  	0.144868 
862.180752  	0.142816 
864.109568  	0.141267 
866.038384  	0.139977 
867.967200  	0.138275 
869.896016  	0.136397 
871.824832  	0.135030 
873.753648  	0.134448 
875.682464  	0.134026 
877.611280  	0.133749 
879.540096  	0.133875 
881.468912  	0.134242 
883.397728  	0.134240 
885.326544  	0.134235 
887.255360  	0.133915 
889.184176  	0.133160 
891.112992  	0.131860 
893.041808  	0.130546 
894.970624  	0.128921 
896.899440  	0.126660 
898.828256  	0.123868 
900.757072  	0.121275 
902.685888  	0.118993 
904.614704  	0.117447 
906.543520  	0.116875 
908.472336  	0.117144 
910.401152  	0.118128 
912.329968  	0.119854 
914.258784  	0.121771 
916.187600  	0.123632 
918.116416  	0.124990 
920.045232  	0.125263 
921.974048  	0.124761 
923.902864  	0.124103 
925.831680  	0.123167 
927.760496  	0.122127 
929.689312  	0.121189 
931.618128  	0.120859 
933.546944  	0.120701 
935.475760  	0.120518 
937.404576  	0.120706 
939.333392  	0.121046 
941.262208  	0.121557 
943.191024  	0.122829 
945.119840  	0.124926 
947.048656  	0.127529 
948.977472  	0.131137 
950.906288  	0.135440 
952.835104  	0.140176 
954.763920  	0.144906 
956.692736  	0.149359 
958.621552  	0.153306 
960.550368  	0.156152 
962.479184  	0.157378 
964.408000  	0.156542 
966.336816  	0.154114 
968.265632  	0.149701 
970.194448  	0.144101 
972.123264  	0.137584 
974.052080  	0.130222 
975.980896  	0.122797 
977.909712  	0.115860 
979.838528  	0.109985 
981.767344  	0.105208 
983.696160  	0.101649 
985.624976  	0.099447 
987.553792  	0.099023 
989.482608  	0.100206 
991.411424  	0.102683 
993.340240  	0.106311 
995.269056  	0.110924 
997.197872  	0.115856 
999.126688  	0.120713 
1001.055504  	0.125682 
1002.984320  	0.130390 
1004.913136  	0.135015 
1006.841952  	0.139226 
1008.770768  	0.142518 
1010.699584  	0.144804 
1012.628400  	0.146499 
1014.557216  	0.147445 
1016.486032  	0.148124 
1018.414848  	0.148536 
1020.343664  	0.148869 
1022.272480  	0.148965 
1024.201296  	0.148696 
1026.130112  	0.147525 
1028.058928  	0.147351 
1029.987744  	0.148755 
1031.916560  	0.149975 
1033.845376  	0.151116 
1035.774192  	0.152216 
1037.703008  	0.153781 
1039.631824  	0.157325 
1041.560640  	0.161862 
1043.489456  	0.167840 
1045.418272  	0.175616 
1047.347088  	0.185266 
1049.275904  	0.195638 
1051.204720  	0.206240 
1053.133536  	0.215477 
1055.062352  	0.223210 
1056.991168  	0.228658 
1058.919984  	0.232831 
1060.848800  	0.235007 
1062.777616  	0.234747 
1064.706432  	0.231756 
1066.635248  	0.228762 
1068.564064  	0.226782 
1070.492880  	0.223372 
1072.421696  	0.218231 
1074.350512  	0.213316 
1076.279328  	0.209522 
1078.208144  	0.207507 
1080.136960  	0.206111 
1082.065776  	0.204489 
1083.994592  	0.202732 
1085.923408  	0.201185 
1087.852224  	0.199004 
1089.781040  	0.196383 
1091.709856  	0.192630 
1093.638672  	0.187412 
1095.567488  	0.180715 
1097.496304  	0.173968 
1099.425120  	0.166456 
1101.353936  	0.158740 
1103.282752  	0.151178 
1105.211568  	0.143330 
1107.140384  	0.135697 
1109.069200  	0.128440 
1110.998016  	0.121826 
1112.926832  	0.115646 
1114.855648  	0.109557 
1116.784464  	0.103721 
1118.713280  	0.098612 
1120.642096  	0.093746 
1122.570912  	0.089008 
1124.499728  	0.084559 
1126.428544  	0.080163 
1128.357360  	0.076042 
1130.286176  	0.072286 
1132.214992  	0.069031 
1134.143808  	0.066314 
1136.072624  	0.063908 
1138.001440  	0.061533 
1139.930256  	0.059108 
1141.859072  	0.057011 
1143.787888  	0.054912 
1145.716704  	0.053305 
1147.645520  	0.052246 
1149.574336  	0.051458 
1151.503152  	0.050730 
1153.431968  	0.050390 
1155.360784  	0.050292 
1157.289600  	0.050577 
1159.218416  	0.051099 
1161.147232  	0.051715 
1163.076048  	0.052331 
1165.004864  	0.053349 
1166.933680  	0.054221 
1168.862496  	0.055495 
1170.791312  	0.057167 
1172.720128  	0.058759 
1174.648944  	0.060247 
1176.577760  	0.062022 
1178.506576  	0.063843 
1180.435392  	0.065647 
1182.364208  	0.067414 
1184.293024  	0.069461 
1186.221840  	0.071615 
1188.150656  	0.073988 
1190.079472  	0.076661 
1192.008288  	0.079779 
1193.937104  	0.083427 
1195.865920  	0.087585 
1197.794736  	0.091758 
1199.723552  	0.096322 
1201.652368  	0.101256 
1203.581184  	0.106256 
1205.510000  	0.111061 
1207.438816  	0.116036 
1209.367632  	0.120784 
1211.296448  	0.125043 
1213.225264  	0.128974 
1215.154080  	0.132332 
1217.082896  	0.135019 
1219.011712  	0.136981 
1220.940528  	0.138930 
1222.869344  	0.140312 
1224.798160  	0.141068 
1226.726976  	0.141463 
1228.655792  	0.141682 
1230.584608  	0.141358 
1232.513424  	0.140573 
1234.442240  	0.139209 
1236.371056  	0.137059 
1238.299872  	0.134268 
1240.228688  	0.130362 
1242.157504  	0.126041 
1244.086320  	0.121941 
1246.015136  	0.116899 
1247.943952  	0.111383 
1249.872768  	0.106130 
1251.801584  	0.101274 
1253.730400  	0.096478 
1255.659216  	0.091809 
1257.588032  	0.087274 
1259.516848  	0.083007 
1261.445664  	0.079141 
1263.374480  	0.075691 
1265.303296  	0.072585 
1267.232112  	0.070134 
1269.160928  	0.068489 
1271.089744  	0.067406 
1273.018560  	0.067051 
1274.947376  	0.067242 
1276.876192  	0.067421 
1278.805008  	0.067042 
1280.733824  	0.065859 
1282.662640  	0.063697 
1284.591456  	0.060801 
1286.520272  	0.057892 
1288.449088  	0.055544 
1290.377904  	0.053528 
1292.306720  	0.051942 
1294.235536  	0.050220 
1296.164352  	0.047837 
1298.093168  	0.044918 
1300.021984  	0.042187 
1301.950800  	0.039757 
1303.879616  	0.037773 
1305.808432  	0.036213 
1307.737248  	0.035015 
1309.666064  	0.033999 
1311.594880  	0.033630 
1313.523696  	0.033469 
1315.452512  	0.033449 
1317.381328  	0.033887 
1319.310144  	0.034485 
1321.238960  	0.034923 
1323.167776  	0.035387 
1325.096592  	0.035698 
1327.025408  	0.035728 
1328.954224  	0.035345 
1330.883040  	0.034712 
1332.811856  	0.033754 
1334.740672  	0.033052 
1336.669488  	0.032679 
1338.598304  	0.032645 
1340.527120  	0.032075 
1342.455936  	0.031081 
1344.384752  	0.030823 
1346.313568  	0.031268 
1348.242384  	0.032158 
1350.171200  	0.033458 
1352.100016  	0.034825 
1354.028832  	0.036270 
1355.957648  	0.037786 
1357.886464  	0.039302 
1359.815280  	0.040676 
1361.744096  	0.042151 
1363.672912  	0.043282 
1365.601728  	0.043520 
1367.530544  	0.043799 
1369.459360  	0.043858 
1371.388176  	0.043129 
1373.316992  	0.042299 
1375.245808  	0.041020 
1377.174624  	0.039481 
1379.103440  	0.037874 
1381.032256  	0.036435 
1382.961072  	0.035323 
1384.889888  	0.034800 
1386.818704  	0.034564 
1388.747520  	0.033710 
1390.676336  	0.032221 
1392.605152  	0.030358 
1394.533968  	0.029709 
1396.462784  	0.031072 
1398.391600  	0.031490 
1400.320416  	0.031669 
1402.249232  	0.031803 
1404.178048  	0.032532 
1406.106864  	0.033508 
1408.035680  	0.034750 
1409.964496  	0.036271 
1411.893312  	0.038135 
1413.822128  	0.039856 
1415.750944  	0.041667 
1417.679760  	0.042630 
1419.608576  	0.042706 
1421.537392  	0.042456 
1423.466208  	0.042193 
1425.395024  	0.041219 
1427.323840  	0.039856 
1429.252656  	0.038495 
1431.181472  	0.037605 
1433.110288  	0.037232 
1435.039104  	0.037039 
1436.967920  	0.037296 
1438.896736  	0.037709 
1440.825552  	0.037922 
1442.754368  	0.038218 
1444.683184  	0.038097 
1446.612000  	0.038056 
1448.540816  	0.038150 
1450.469632  	0.038251 
1452.398448  	0.038292 
1454.327264  	0.038206 
1456.256080  	0.037982 
1458.184896  	0.038547 
1460.113712  	0.039212 
1462.042528  	0.039430 
1463.971344  	0.039461 
1465.900160  	0.040974 
1467.828976  	0.042704 
1469.757792  	0.044181 
1471.686608  	0.046069 
1473.615424  	0.049875 
1475.544240  	0.052660 
1477.473056  	0.054503 
1479.401872  	0.054923 
1481.330688  	0.055229 
1483.259504  	0.055097 
1485.188320  	0.054323 
1487.117136  	0.052814 
1489.045952  	0.051436 
1490.974768  	0.049243 
1492.903584  	0.046738 
1494.832400  	0.044039 
1496.761216  	0.041300 
1498.690032  	0.039204 
1500.618848  	0.038092 
1502.547664  	0.036618 
1504.476480  	0.034267 
1506.405296  	0.032912 
1508.334112  	0.034670 
1510.262928  	0.034314 
1512.191744  	0.033311 
1514.120560  	0.032387 
1516.049376  	0.032056 
1517.978192  	0.032161 
1519.907008  	0.032495 
1521.835824  	0.033795 
1523.764640  	0.036063 
1525.693456  	0.038465 
1527.622272  	0.040520 
1529.551088  	0.041468 
1531.479904  	0.041712 
1533.408720  	0.041476 
1535.337536  	0.041451 
1537.266352  	0.039446 
1539.195168  	0.035478 
1541.123984  	0.034135 
1543.052800  	0.035552 
1544.981616  	0.035679 
1546.910432  	0.034745 
1548.839248  	0.034175 
1550.768064  	0.034266 
1552.696880  	0.033580 
1554.625696  	0.033509 
1556.554512  	0.032232 
1558.483328  	0.030828 
1560.412144  	0.035523 
1562.340960  	0.038167 
1564.269776  	0.039482 
1566.198592  	0.041908 
1568.127408  	0.043475 
1570.056224  	0.046907 
1571.985040  	0.050349 
1573.913856  	0.051326 
1575.842672  	0.051622 
1577.771488  	0.054086 
1579.700304  	0.054595 
1581.629120  	0.054587 
1583.557936  	0.054806 
1585.486752  	0.055920 
1587.415568  	0.057757 
1589.344384  	0.060701 
1591.273200  	0.064019 
1593.202016  	0.067845 
1595.130832  	0.071599 
1597.059648  	0.075390 
1598.988464  	0.078203 
1600.917280  	0.080538 
1602.846096  	0.081856 
1604.774912  	0.082596 
1606.703728  	0.082335 
1608.632544  	0.082110 
1610.561360  	0.081729 
1612.490176  	0.081607 
1614.418992  	0.080742 
1616.347808  	0.081198 
1618.276624  	0.084563 
1620.205440  	0.087718 
1622.134256  	0.090279 
1624.063072  	0.095610 
1625.991888  	0.100321 
1627.920704  	0.105527 
1629.849520  	0.111732 
1631.778336  	0.116820 
1633.707152  	0.119741 
1635.635968  	0.124899 
1637.564784  	0.131944 
1639.493600  	0.135880 
1641.422416  	0.138750 
1643.351232  	0.140504 
1645.280048  	0.140638 
1647.208864  	0.142494 
1649.137680  	0.143890 
1651.066496  	0.142079 
1652.995312  	0.140067 
1654.924128  	0.143509 
1656.852944  	0.143062 
1658.781760  	0.142135 
1660.710576  	0.140768 
1662.639392  	0.139726 
1664.568208  	0.139556 
1666.497024  	0.138690 
1668.425840  	0.136921 
1670.354656  	0.136413 
1672.283472  	0.136435 
1674.212288  	0.136030 
1676.141104  	0.136986 
1678.069920  	0.137868 
1679.998736  	0.138467 
1681.927552  	0.138047 
1683.856368  	0.137191 
1685.785184  	0.139943 
1687.714000  	0.140066 
1689.642816  	0.139227 
1691.571632  	0.137814 
1693.500448  	0.135536 
1695.429264  	0.131915 
1697.358080  	0.129369 
1699.286896  	0.125900 
1701.215712  	0.122759 
1703.144528  	0.119955 
1705.073344  	0.115638 
1707.002160  	0.111481 
1708.930976  	0.107890 
1710.859792  	0.103464 
1712.788608  	0.098499 
1714.717424  	0.093074 
1716.646240  	0.087163 
1718.575056  	0.081618 
1720.503872  	0.077049 
1722.432688  	0.072593 
1724.361504  	0.067208 
1726.290320  	0.062224 
1728.219136  	0.057464 
1730.147952  	0.052910 
1732.076768  	0.048278 
1734.005584  	0.043115 
1735.934400  	0.038586 
1737.863216  	0.035375 
1739.792032  	0.030917 
1741.720848  	0.028121 
1743.649664  	0.025693 
1745.578480  	0.022956 
1747.507296  	0.020174 
1749.436112  	0.018667 
1751.364928  	0.017597 
1753.293744  	0.016367 
1755.222560  	0.014899 
1757.151376  	0.014183 
1759.080192  	0.013159 
1761.009008  	0.012534 
1762.937824  	0.011973 
1764.866640  	0.011627 
1766.795456  	0.011063 
1768.724272  	0.010825 
1770.653088  	0.009187 
1772.581904  	0.008581 
1774.510720  	0.009460 
1776.439536  	0.009944 
1778.368352  	0.009681 
1780.297168  	0.009728 
1782.225984  	0.009423 
1784.154800  	0.009300 
1786.083616  	0.009261 
1788.012432  	0.009108 
1789.941248  	0.008433 
1791.870064  	0.008017 
1793.798880  	0.008002 
1795.727696  	0.008578 
1797.656512  	0.008180 
1799.585328  	0.007856 
1801.514144  	0.007931 
1803.442960  	0.007689 
1805.371776  	0.007293 
1807.300592  	0.007443 
1809.229408  	0.007058 
1811.158224  	0.007091 
1813.087040  	0.006986 
1815.015856  	0.006771 
1816.944672  	0.006698 
1818.873488  	0.006949 
1820.802304  	0.006804 
1822.731120  	0.006801 
1824.659936  	0.006766 
1826.588752  	0.006934 
1828.517568  	0.006401 
1830.446384  	0.006647 
1832.375200  	0.006966 
1834.304016  	0.006884 
1836.232832  	0.006618 
1838.161648  	0.006837 
1840.090464  	0.006619 
1842.019280  	0.006460 
1843.948096  	0.005988 
1845.876912  	0.006468 
1847.805728  	0.006925 
1849.734544  	0.006877 
1851.663360  	0.006436 
1853.592176  	0.006372 
1855.520992  	0.006162 
1857.449808  	0.006549 
1859.378624  	0.006544 
1861.307440  	0.006643 
1863.236256  	0.006471 
1865.165072  	0.006224 
1867.093888  	0.006015 
1869.022704  	0.006621 
1870.951520  	0.006745 
1872.880336  	0.006918 
1874.809152  	0.006511 
1876.737968  	0.006254 
1878.666784  	0.005639 
1880.595600  	0.005666 
1882.524416  	0.005980 
1884.453232  	0.006142 
1886.382048  	0.005874 
1888.310864  	0.005963 
1890.239680  	0.005956 
1892.168496  	0.006134 
1894.097312  	0.005808 
1896.026128  	0.005855 
1897.954944  	0.005857 
1899.883760  	0.005824 
1901.812576  	0.005616 
1903.741392  	0.005994 
1905.670208  	0.005850 
1907.599024  	0.005925 
1909.527840  	0.005530 
1911.456656  	0.005424 
1913.385472  	0.005533 
1915.314288  	0.006089 
1917.243104  	0.005885 
1919.171920  	0.006148 
1921.100736  	0.006314 
1923.029552  	0.006596 
1924.958368  	0.005895 
1926.887184  	0.005798 
1928.816000  	0.005198 
1930.744816  	0.005052 
1932.673632  	0.004865 
1934.602448  	0.005449 
1936.531264  	0.005856 
1938.460080  	0.005742 
1940.388896  	0.005688 
1942.317712  	0.005823 
1944.246528  	0.005435 
1946.175344  	0.005986 
1948.104160  	0.005292 
1950.032976  	0.005021 
1951.961792  	0.005236 
1953.890608  	0.006038 
1955.819424  	0.005530 
1957.748240  	0.005503 
1959.677056  	0.005681 
1961.605872  	0.005391 
1963.534688  	0.004727 
1965.463504  	0.005961 
1967.392320  	0.005570 
1969.321136  	0.004890 
1971.249952  	0.005219 
1973.178768  	0.006519 
1975.107584  	0.005302 
1977.036400  	0.005320 
1978.965216  	0.007502 
1980.894032  	0.007928 
1982.822848  	0.006450 
1984.751664  	0.006881 
1986.680480  	0.006992 
1988.609296  	0.007148 
1990.538112  	0.006439 
1992.466928  	0.006683 
1994.395744  	0.006609 
1996.324560  	0.006775 
1998.253376  	0.006040 
2000.182192  	0.005453 
2002.111008  	0.004788 
2004.039824  	0.004944 
2005.968640  	0.004964 
2007.897456  	0.006410 
2009.826272  	0.006417 
2011.755088  	0.005761 
2013.683904  	0.005957 
2015.612720  	0.007174 
2017.541536  	0.006351 
2019.470352  	0.005086 
2021.399168  	0.004575 
2023.327984  	0.006012 
2025.256800  	0.005608 
2027.185616  	0.004694 
2029.114432  	0.004076 
2031.043248  	0.005762 
2032.972064  	0.006439 
2034.900880  	0.007197 
2036.829696  	0.007671 
2038.758512  	0.006583 
2040.687328  	0.005271 
2042.616144  	0.005045 
2044.544960  	0.005199 
2046.473776  	0.006020 
2048.402592  	0.006605 
2050.331408  	0.007923 
2052.260224  	0.007183 
2054.189040  	0.006207 
2056.117856  	0.005639 
2058.046672  	0.005502 
2059.975488  	0.005397 
2061.904304  	0.005842 
2063.833120  	0.006559 
2065.761936  	0.007073 
2067.690752  	0.006539 
2069.619568  	0.006151 
2071.548384  	0.005116 
2073.477200  	0.005445 
2075.406016  	0.006584 
2077.334832  	0.006953 
2079.263648  	0.006341 
2081.192464  	0.006596 
2083.121280  	0.007093 
2085.050096  	0.007195 
2086.978912  	0.007030 
2088.907728  	0.006685 
2090.836544  	0.006047 
2092.765360  	0.005597 
2094.694176  	0.005648 
2096.622992  	0.005994 
2098.551808  	0.005944 
2100.480624  	0.006086 
2102.409440  	0.006157 
2104.338256  	0.006590 
2106.267072  	0.006489 
2108.195888  	0.006535 
2110.124704  	0.007406 
2112.053520  	0.007882 
2113.982336  	0.006899 
2115.911152  	0.006765 
2117.839968  	0.006601 
2119.768784  	0.006326 
2121.697600  	0.006183 
2123.626416  	0.005988 
2125.555232  	0.005522 
2127.484048  	0.005651 
2129.412864  	0.005326 
2131.341680  	0.004712 
2133.270496  	0.005118 
2135.199312  	0.005461 
2137.128128  	0.005320 
2139.056944  	0.005202 
2140.985760  	0.004190 
2142.914576  	0.004946 
2144.843392  	0.004965 
2146.772208  	0.005294 
2148.701024  	0.005470 
2150.629840  	0.005798 
2152.558656  	0.004796 
2154.487472  	0.003436 
2156.416288  	0.002372 
2158.345104  	0.004605 
2160.273920  	0.007356 
2162.202736  	0.008075 
2164.131552  	0.007094 
2166.060368  	0.008201 
2167.989184  	0.007993 
2169.918000  	0.006926 
2171.846816  	0.006007 
2173.775632  	0.006061 
2175.704448  	0.006665 
2177.633264  	0.006916 
2179.562080  	0.006055 
2181.490896  	0.006158 
2183.419712  	0.006229 
2185.348528  	0.007034 
2187.277344  	0.007363 
2189.206160  	0.006890 
2191.134976  	0.007129 
2193.063792  	0.008686 
2194.992608  	0.008657 
2196.921424  	0.007885 
2198.850240  	0.008053 
2200.779056  	0.008079 
2202.707872  	0.007643 
2204.636688  	0.007481 
2206.565504  	0.007461 
2208.494320  	0.007943 
2210.423136  	0.006650 
2212.351952  	0.006496 
2214.280768  	0.007204 
2216.209584  	0.006987 
2218.138400  	0.006590 
2220.067216  	0.006492 
2221.996032  	0.006778 
2223.924848  	0.006661 
2225.853664  	0.007021 
2227.782480  	0.007723 
2229.711296  	0.007610 
2231.640112  	0.007444 
2233.568928  	0.007325 
2235.497744  	0.007458 
2237.426560  	0.006658 
2239.355376  	0.006468 
2241.284192  	0.006522 
2243.213008  	0.006786 
2245.141824  	0.007127 
2247.070640  	0.006780 
2248.999456  	0.006519 
2250.928272  	0.006922 
2252.857088  	0.007019 
2254.785904  	0.007125 
2256.714720  	0.007420 
2258.643536  	0.007745 
2260.572352  	0.007232 
2262.501168  	0.007079 
2264.429984  	0.007179 
2266.358800  	0.007455 
2268.287616  	0.007506 
2270.216432  	0.007450 
2272.145248  	0.007378 
2274.074064  	0.007410 
2276.002880  	0.007443 
2277.931696  	0.008002 
2279.860512  	0.008414 
2281.789328  	0.008375 
2283.718144  	0.008362 
2285.646960  	0.008591 
2287.575776  	0.008668 
2289.504592  	0.008335 
2291.433408  	0.007856 
2293.362224  	0.007888 
2295.291040  	0.008153 
2297.219856  	0.008455 
2299.148672  	0.008372 
2301.077488  	0.008221 
2303.006304  	0.008173 
2304.935120  	0.008203 
2306.863936  	0.007822 
2308.792752  	0.007576 
2310.721568  	0.007547 
2312.650384  	0.007224 
2314.579200  	0.006600 
2316.508016  	0.006157 
2318.436832  	0.005453 
2320.365648  	0.004588 
2322.294464  	0.004093 
2324.223280  	0.003175 
2326.152096  	0.001393 
2328.080912  	-0.000001 
2330.009728  	-0.001178 
2331.938544  	-0.002138 
2333.867360  	-0.002948 
2335.796176  	-0.003761 
2337.724992  	-0.004457 
2339.653808  	-0.004995 
2341.582624  	-0.004695 
2343.511440  	-0.002883 
2345.440256  	-0.000668 
2347.369072  	0.002010 
2349.297888  	0.002393 
2351.226704  	-0.000012 
2353.155520  	-0.003108 
2355.084336  	-0.005919 
2357.013152  	-0.007909 
2358.941968  	-0.009001 
2360.870784  	-0.009706 
2362.799600  	-0.008995 
2364.728416  	-0.007564 
2366.657232  	-0.005822 
2368.586048  	-0.003875 
2370.514864  	-0.001668 
2372.443680  	0.000708 
2374.372496  	0.003303 
2376.301312  	0.005262 
2378.230128  	0.006901 
2380.158944  	0.007733 
2382.087760  	0.008097 
2384.016576  	0.008291 
2385.945392  	0.008457 
2387.874208  	0.008281 
2389.803024  	0.007959 
2391.731840  	0.007722 
2393.660656  	0.007800 
2395.589472  	0.008018 
2397.518288  	0.008141 
2399.447104  	0.008025 
2401.375920  	0.007842 
2403.304736  	0.007833 
2405.233552  	0.008027 
2407.162368  	0.008237 
2409.091184  	0.008213 
2411.020000  	0.008148 
2412.948816  	0.008281 
2414.877632  	0.008150 
2416.806448  	0.008338 
2418.735264  	0.008613 
2420.664080  	0.008422 
2422.592896  	0.007964 
2424.521712  	0.007994 
2426.450528  	0.008290 
2428.379344  	0.008315 
2430.308160  	0.008499 
2432.236976  	0.008764 
2434.165792  	0.008888 
2436.094608  	0.009255 
2438.023424  	0.009406 
2439.952240  	0.009370 
2441.881056  	0.009476 
2443.809872  	0.009414 
2445.738688  	0.009370 
2447.667504  	0.009562 
2449.596320  	0.009411 
2451.525136  	0.009481 
2453.453952  	0.009498 
2455.382768  	0.009662 
2457.311584  	0.009869 
2459.240400  	0.009863 
2461.169216  	0.009672 
2463.098032  	0.009572 
2465.026848  	0.009721 
2466.955664  	0.009813 
2468.884480  	0.009784 
2470.813296  	0.009830 
2472.742112  	0.009683 
2474.670928  	0.009555 
2476.599744  	0.009544 
2478.528560  	0.009616 
2480.457376  	0.009828 
2482.386192  	0.010048 
2484.315008  	0.010225 
2486.243824  	0.010225 
2488.172640  	0.009884 
2490.101456  	0.009879 
2492.030272  	0.010215 
2493.959088  	0.010200 
2495.887904  	0.010063 
2497.816720  	0.010341 
2499.745536  	0.010505 
2501.674352  	0.010568 
2503.603168  	0.010686 
2505.531984  	0.010753 
2507.460800  	0.010792 
2509.389616  	0.010744 
2511.318432  	0.010628 
2513.247248  	0.010754 
2515.176064  	0.010864 
2517.104880  	0.011064 
2519.033696  	0.011171 
2520.962512  	0.011065 
2522.891328  	0.011288 
2524.820144  	0.011517 
2526.748960  	0.011395 
2528.677776  	0.011479 
2530.606592  	0.011507 
2532.535408  	0.011396 
2534.464224  	0.011675 
2536.393040  	0.011906 
2538.321856  	0.011635 
2540.250672  	0.011489 
2542.179488  	0.011465 
2544.108304  	0.011735 
2546.037120  	0.011712 
2547.965936  	0.011949 
2549.894752  	0.012217 
2551.823568  	0.012261 
2553.752384  	0.012205 
2555.681200  	0.012362 
2557.610016  	0.012558 
2559.538832  	0.012590 
2561.467648  	0.012437 
2563.396464  	0.012737 
2565.325280  	0.013094 
2567.254096  	0.013073 
2569.182912  	0.012754 
2571.111728  	0.012630 
2573.040544  	0.012337 
2574.969360  	0.012243 
2576.898176  	0.012769 
2578.826992  	0.013306 
2580.755808  	0.013123 
2582.684624  	0.012867 
2584.613440  	0.012854 
2586.542256  	0.013214 
2588.471072  	0.013403 
2590.399888  	0.013240 
2592.328704  	0.013315 
2594.257520  	0.013592 
2596.186336  	0.013868 
2598.115152  	0.013902 
2600.043968  	0.013674 
2601.972784  	0.013689 
2603.901600  	0.013885 
2605.830416  	0.014082 
2607.759232  	0.013999 
2609.688048  	0.014064 
2611.616864  	0.014250 
2613.545680  	0.014286 
2615.474496  	0.014288 
2617.403312  	0.014410 
2619.332128  	0.014590 
2621.260944  	0.014698 
2623.189760  	0.014727 
2625.118576  	0.014881 
2627.047392  	0.015034 
2628.976208  	0.015282 
2630.905024  	0.015359 
2632.833840  	0.015496 
2634.762656  	0.015666 
2636.691472  	0.015589 
2638.620288  	0.015577 
2640.549104  	0.015707 
2642.477920  	0.015760 
2644.406736  	0.015710 
2646.335552  	0.015925 
2648.264368  	0.016221 
2650.193184  	0.016293 
2652.122000  	0.016462 
2654.050816  	0.016591 
2655.979632  	0.016479 
2657.908448  	0.016442 
2659.837264  	0.016552 
2661.766080  	0.016587 
2663.694896  	0.016601 
2665.623712  	0.016489 
2667.552528  	0.016451 
2669.481344  	0.016676 
2671.410160  	0.016924 
2673.338976  	0.017028 
2675.267792  	0.017122 
2677.196608  	0.017190 
2679.125424  	0.017287 
2681.054240  	0.017314 
2682.983056  	0.017392 
2684.911872  	0.017573 
2686.840688  	0.017692 
2688.769504  	0.017749 
2690.698320  	0.017725 
2692.627136  	0.017858 
2694.555952  	0.018037 
2696.484768  	0.018039 
2698.413584  	0.018105 
2700.342400  	0.018097 
2702.271216  	0.018212 
2704.200032  	0.018384 
2706.128848  	0.018540 
2708.057664  	0.018616 
2709.986480  	0.018596 
2711.915296  	0.018620 
2713.844112  	0.018678 
2715.772928  	0.018839 
2717.701744  	0.018990 
2719.630560  	0.018987 
2721.559376  	0.019055 
2723.488192  	0.019186 
2725.417008  	0.019452 
2727.345824  	0.019545 
2729.274640  	0.019489 
2731.203456  	0.019515 
2733.132272  	0.019654 
2735.061088  	0.019780 
2736.989904  	0.019796 
2738.918720  	0.019834 
2740.847536  	0.019837 
2742.776352  	0.020008 
2744.705168  	0.020211 
2746.633984  	0.020205 
2748.562800  	0.020234 
2750.491616  	0.020293 
2752.420432  	0.020411 
2754.349248  	0.020517 
2756.278064  	0.020567 
2758.206880  	0.020605 
2760.135696  	0.020750 
2762.064512  	0.020752 
2763.993328  	0.020739 
2765.922144  	0.020781 
2767.850960  	0.020762 
2769.779776  	0.020819 
2771.708592  	0.020929 
2773.637408  	0.020971 
2775.566224  	0.021002 
2777.495040  	0.021012 
2779.423856  	0.021139 
2781.352672  	0.021267 
2783.281488  	0.021374 
2785.210304  	0.021388 
2787.139120  	0.021452 
2789.067936  	0.021618 
2790.996752  	0.021692 
2792.925568  	0.021774 
2794.854384  	0.021921 
2796.783200  	0.021943 
2798.712016  	0.021874 
2800.640832  	0.021952 
2802.569648  	0.022152 
2804.498464  	0.022282 
2806.427280  	0.022365 
2808.356096  	0.022432 
2810.284912  	0.022507 
2812.213728  	0.022507 
2814.142544  	0.022587 
2816.071360  	0.022744 
2818.000176  	0.022755 
2819.928992  	0.022608 
2821.857808  	0.022597 
2823.786624  	0.022646 
2825.715440  	0.022635 
2827.644256  	0.022506 
2829.573072  	0.022490 
2831.501888  	0.022452 
2833.430704  	0.022336 
2835.359520  	0.022208 
2837.288336  	0.022085 
2839.217152  	0.022012 
2841.145968  	0.021930 
2843.074784  	0.021814 
2845.003600  	0.021772 
2846.932416  	0.021780 
2848.861232  	0.021848 
2850.790048  	0.021719 
2852.718864  	0.021417 
2854.647680  	0.021110 
2856.576496  	0.021056 
2858.505312  	0.020976 
2860.434128  	0.020737 
2862.362944  	0.020446 
2864.291760  	0.020044 
2866.220576  	0.019781 
2868.149392  	0.019895 
2870.078208  	0.020088 
2872.007024  	0.020191 
2873.935840  	0.020360 
2875.864656  	0.020570 
2877.793472  	0.020753 
2879.722288  	0.020817 
2881.651104  	0.020658 
2883.579920  	0.020542 
2885.508736  	0.020682 
2887.437552  	0.020971 
2889.366368  	0.021029 
2891.295184  	0.020955 
2893.224000  	0.020847 
2895.152816  	0.020934 
2897.081632  	0.020673 
2899.010448  	0.019898 
2900.939264  	0.019539 
2902.868080  	0.020150 
2904.796896  	0.020744 
2906.725712  	0.021074 
2908.654528  	0.021306 
2910.583344  	0.021569 
2912.512160  	0.022164 
2914.440976  	0.022918 
2916.369792  	0.023438 
2918.298608  	0.023842 
2920.227424  	0.024282 
2922.156240  	0.024776 
2924.085056  	0.025238 
2926.013872  	0.025730 
2927.942688  	0.026430 
2929.871504  	0.027063 
2931.800320  	0.027543 
2933.729136  	0.027925 
2935.657952  	0.028130 
2937.586768  	0.028479 
2939.515584  	0.028747 
2941.444400  	0.028810 
2943.373216  	0.028951 
2945.302032  	0.029067 
2947.230848  	0.029099 
2949.159664  	0.028957 
2951.088480  	0.028598 
2953.017296  	0.028413 
2954.946112  	0.028095 
2956.874928  	0.027524 
2958.803744  	0.027057 
2960.732560  	0.026607 
2962.661376  	0.026343 
2964.590192  	0.025902 
2966.519008  	0.025248 
2968.447824  	0.024667 
2970.376640  	0.024355 
2972.305456  	0.024031 
2974.234272  	0.023939 
2976.163088  	0.023866 
2978.091904  	0.023714 
2980.020720  	0.023672 
2981.949536  	0.023733 
2983.878352  	0.023554 
2985.807168  	0.023030 
2987.735984  	0.022709 
2989.664800  	0.022989 
2991.593616  	0.024267 
2993.522432  	0.024958 
2995.451248  	0.025167 
2997.380064  	0.025560 
2999.308880  	0.026054 
3001.237696  	0.026681 
3003.166512  	0.027304 
3005.095328  	0.027845 
3007.024144  	0.028557 
3008.952960  	0.029223 
3010.881776  	0.029895 
3012.810592  	0.030579 
3014.739408  	0.031025 
3016.668224  	0.031561 
3018.597040  	0.032169 
3020.525856  	0.032616 
3022.454672  	0.033007 
3024.383488  	0.033512 
3026.312304  	0.034076 
3028.241120  	0.034517 
3030.169936  	0.034711 
3032.098752  	0.035078 
3034.027568  	0.035317 
3035.956384  	0.035565 
3037.885200  	0.035983 
3039.814016  	0.036400 
3041.742832  	0.036839 
3043.671648  	0.037137 
3045.600464  	0.037310 
3047.529280  	0.037566 
3049.458096  	0.037771 
3051.386912  	0.037889 
3053.315728  	0.038164 
3055.244544  	0.038536 
3057.173360  	0.038898 
3059.102176  	0.039207 
3061.030992  	0.039496 
3062.959808  	0.039710 
3064.888624  	0.040054 
3066.817440  	0.040348 
3068.746256  	0.040518 
3070.675072  	0.040663 
3072.603888  	0.041076 
3074.532704  	0.041501 
3076.461520  	0.041785 
3078.390336  	0.041929 
3080.319152  	0.042309 
3082.247968  	0.042843 
3084.176784  	0.043250 
3086.105600  	0.043388 
3088.034416  	0.043530 
3089.963232  	0.043782 
3091.892048  	0.044080 
3093.820864  	0.044338 
3095.749680  	0.044635 
3097.678496  	0.044579 
3099.607312  	0.044721 
3101.536128  	0.045132 
3103.464944  	0.045653 
3105.393760  	0.045963 
3107.322576  	0.046215 
3109.251392  	0.046481 
3111.180208  	0.046644 
3113.109024  	0.046818 
3115.037840  	0.047046 
3116.966656  	0.047330 
3118.895472  	0.047586 
3120.824288  	0.047650 
3122.753104  	0.047861 
3124.681920  	0.048051 
3126.610736  	0.048195 
3128.539552  	0.048424 
3130.468368  	0.048463 
3132.397184  	0.048498 
3134.326000  	0.048604 
3136.254816  	0.048627 
3138.183632  	0.048947 
3140.112448  	0.049169 
3142.041264  	0.049273 
3143.970080  	0.049599 
3145.898896  	0.049760 
3147.827712  	0.049936 
3149.756528  	0.050200 
3151.685344  	0.050461 
3153.614160  	0.050733 
3155.542976  	0.050994 
3157.471792  	0.051170 
3159.400608  	0.051521 
3161.329424  	0.051890 
3163.258240  	0.052161 
3165.187056  	0.052339 
3167.115872  	0.052363 
3169.044688  	0.052504 
3170.973504  	0.052644 
3172.902320  	0.052721 
3174.831136  	0.052927 
3176.759952  	0.053266 
3178.688768  	0.053559 
3180.617584  	0.053435 
3182.546400  	0.053199 
3184.475216  	0.053424 
3186.404032  	0.053753 
3188.332848  	0.053826 
3190.261664  	0.053949 
3192.190480  	0.054017 
3194.119296  	0.053850 
3196.048112  	0.053836 
3197.976928  	0.054172 
3199.905744  	0.054335 
3201.834560  	0.054293 
3203.763376  	0.054332 
3205.692192  	0.054339 
3207.621008  	0.054183 
3209.549824  	0.053992 
3211.478640  	0.053727 
3213.407456  	0.053630 
3215.336272  	0.053873 
3217.265088  	0.053856 
3219.193904  	0.053479 
3221.122720  	0.053154 
3223.051536  	0.052972 
3224.980352  	0.052907 
3226.909168  	0.052802 
3228.837984  	0.052630 
3230.766800  	0.052624 
3232.695616  	0.052695 
3234.624432  	0.052554 
3236.553248  	0.052429 
3238.482064  	0.052407 
3240.410880  	0.052341 
3242.339696  	0.052354 
3244.268512  	0.052328 
3246.197328  	0.052381 
3248.126144  	0.052362 
3250.054960  	0.052430 
3251.983776  	0.052219 
3253.912592  	0.052114 
3255.841408  	0.052133 
3257.770224  	0.052225 
3259.699040  	0.052470 
3261.627856  	0.052533 
3263.556672  	0.052537 
3265.485488  	0.052560 
3267.414304  	0.052656 
3269.343120  	0.052750 
3271.271936  	0.052884 
3273.200752  	0.053017 
3275.129568  	0.053143 
3277.058384  	0.053180 
3278.987200  	0.053318 
3280.916016  	0.053351 
3282.844832  	0.053381 
3284.773648  	0.053437 
3286.702464  	0.053530 
3288.631280  	0.053670 
3290.560096  	0.053846 
3292.488912  	0.054074 
3294.417728  	0.054023 
3296.346544  	0.054169 
3298.275360  	0.054283 
3300.204176  	0.054476 
3302.132992  	0.054639 
3304.061808  	0.054746 
3305.990624  	0.055073 
3307.919440  	0.055275 
3309.848256  	0.055266 
3311.777072  	0.055227 
3313.705888  	0.055454 
3315.634704  	0.055860 
3317.563520  	0.056013 
3319.492336  	0.056171 
3321.421152  	0.056235 
3323.349968  	0.056240 
3325.278784  	0.056486 
3327.207600  	0.056666 
3329.136416  	0.056687 
3331.065232  	0.056584 
3332.994048  	0.056766 
3334.922864  	0.056864 
3336.851680  	0.056615 
3338.780496  	0.056482 
3340.709312  	0.056426 
3342.638128  	0.056338 
3344.566944  	0.056281 
3346.495760  	0.056201 
3348.424576  	0.056197 
3350.353392  	0.055967 
3352.282208  	0.055730 
3354.211024  	0.055599 
3356.139840  	0.055519 
3358.068656  	0.055201 
3359.997472  	0.054964 
3361.926288  	0.054775 
3363.855104  	0.054417 
3365.783920  	0.054231 
3367.712736  	0.054185 
3369.641552  	0.053868 
3371.570368  	0.053418 
3373.499184  	0.053005 
3375.428000  	0.052783 
3377.356816  	0.052645 
3379.285632  	0.052464 
3381.214448  	0.052353 
3383.143264  	0.052088 
3385.072080  	0.051893 
3387.000896  	0.051655 
3388.929712  	0.051338 
3390.858528  	0.051200 
3392.787344  	0.051064 
3394.716160  	0.050521 
3396.644976  	0.050148 
3398.573792  	0.049933 
3400.502608  	0.049504 
3402.431424  	0.049150 
3404.360240  	0.048806 
3406.289056  	0.048523 
3408.217872  	0.048227 
3410.146688  	0.047880 
3412.075504  	0.047822 
3414.004320  	0.047788 
3415.933136  	0.047403 
3417.861952  	0.046997 
3419.790768  	0.046856 
3421.719584  	0.046508 
3423.648400  	0.046046 
3425.577216  	0.045885 
3427.506032  	0.045761 
3429.434848  	0.045295 
3431.363664  	0.044883 
3433.292480  	0.044486 
3435.221296  	0.044286 
3437.150112  	0.044069 
3439.078928  	0.043784 
3441.007744  	0.043515 
3442.936560  	0.043313 
3444.865376  	0.042774 
3446.794192  	0.042113 
3448.723008  	0.041948 
3450.651824  	0.041559 
3452.580640  	0.040978 
3454.509456  	0.040576 
3456.438272  	0.040401 
3458.367088  	0.040226 
3460.295904  	0.040037 
3462.224720  	0.039448 
3464.153536  	0.038624 
3466.082352  	0.038304 
3468.011168  	0.038147 
3469.939984  	0.037821 
3471.868800  	0.037243 
3473.797616  	0.036802 
3475.726432  	0.036440 
3477.655248  	0.035904 
3479.584064  	0.035558 
3481.512880  	0.035229 
3483.441696  	0.034612 
3485.370512  	0.033985 
3487.299328  	0.033759 
3489.228144  	0.033351 
3491.156960  	0.032794 
3493.085776  	0.032486 
3495.014592  	0.032267 
3496.943408  	0.031963 
3498.872224  	0.031292 
3500.801040  	0.031023 
3502.729856  	0.030971 
3504.658672  	0.030411 
3506.587488  	0.029598 
3508.516304  	0.029360 
3510.445120  	0.029362 
3512.373936  	0.029032 
3514.302752  	0.028543 
3516.231568  	0.028018 
3518.160384  	0.027646 
3520.089200  	0.027462 
3522.018016  	0.027301 
3523.946832  	0.027289 
3525.875648  	0.026894 
3527.804464  	0.026196 
3529.733280  	0.025783 
3531.662096  	0.025564 
3533.590912  	0.025100 
3535.519728  	0.024862 
3537.448544  	0.024765 
3539.377360  	0.024291 
3541.306176  	0.023766 
3543.234992  	0.023576 
3545.163808  	0.023916 
3547.092624  	0.023643 
3549.021440  	0.022523 
3550.950256  	0.021963 
3552.879072  	0.022123 
3554.807888  	0.021875 
3556.736704  	0.021299 
3558.665520  	0.021127 
3560.594336  	0.021169 
3562.523152  	0.020541 
3564.451968  	0.019999 
3566.380784  	0.020289 
3568.309600  	0.020276 
3570.238416  	0.019274 
3572.167232  	0.018403 
3574.096048  	0.018080 
3576.024864  	0.017658 
3577.953680  	0.017401 
3579.882496  	0.017298 
3581.811312  	0.016845 
3583.740128  	0.016137 
3585.668944  	0.015727 
3587.597760  	0.016393 
3589.526576  	0.016053 
3591.455392  	0.014439 
3593.384208  	0.014014 
3595.313024  	0.014045 
3597.241840  	0.013495 
3599.170656  	0.012454 
3601.099472  	0.011968 
3603.028288  	0.012003 
3604.957104  	0.011485 
3606.885920  	0.010744 
3608.814736  	0.011029 
3610.743552  	0.010445 
3612.672368  	0.009700 
3614.601184  	0.009439 
3616.530000  	0.008480 
3618.458816  	0.007984 
3620.387632  	0.008173 
3622.316448  	0.007513 
3624.245264  	0.006626 
3626.174080  	0.005395 
3628.102896  	0.004558 
3630.031712  	0.005791 
3631.960528  	0.005510 
3633.889344  	0.004981 
3635.818160  	0.004523 
3637.746976  	0.004075 
3639.675792  	0.004015 
3641.604608  	0.003643 
3643.533424  	0.002556 
3645.462240  	0.000966 
3647.391056  	-0.000190 
3649.319872  	-0.000513 
3651.248688  	0.000792 
3653.177504  	0.000336 
3655.106320  	-0.001052 
3657.035136  	-0.000932 
3658.963952  	-0.001013 
3660.892768  	-0.001601 
3662.821584  	-0.002001 
3664.750400  	-0.002372 
3666.679216  	-0.003157 
3668.608032  	-0.004401 
3670.536848  	-0.004062 
3672.465664  	-0.004066 
3674.394480  	-0.006071 
3676.323296  	-0.004462 
3678.252112  	-0.003090 
3680.180928  	-0.003037 
3682.109744  	-0.003182 
3684.038560  	-0.003634 
3685.967376  	-0.004749 
3687.896192  	-0.006113 
3689.825008  	-0.005639 
3691.753824  	-0.004224 
3693.682640  	-0.003615 
3695.611456  	-0.003682 
3697.540272  	-0.003386 
3699.469088  	-0.003671 
3701.397904  	-0.003459 
3703.326720  	-0.002701 
3705.255536  	-0.002790 
3707.184352  	-0.003546 
3709.113168  	-0.004311 
3711.041984  	-0.004047 
3712.970800  	-0.002389 
3714.899616  	-0.001796 
3716.828432  	-0.002294 
3718.757248  	-0.002625 
3720.686064  	-0.003076 
3722.614880  	-0.002729 
3724.543696  	-0.002309 
3726.472512  	-0.001874 
3728.401328  	-0.002318 
3730.330144  	-0.004196 
3732.258960  	-0.005237 
3734.187776  	-0.003921 
3736.116592  	-0.001634 
3738.045408  	-0.001809 
3739.974224  	-0.002757 
3741.903040  	-0.003714 
3743.831856  	-0.003636 
3745.760672  	-0.001897 
3747.689488  	-0.003769 
3749.618304  	-0.005111 
3751.547120  	-0.004055 
3753.475936  	-0.001973 
3755.404752  	-0.002125 
3757.333568  	-0.002695 
3759.262384  	-0.002756 
3761.191200  	-0.001926 
3763.120016  	-0.002030 
3765.048832  	-0.002207 
3766.977648  	-0.002091 
3768.906464  	-0.002634 
3770.835280  	-0.001906 
3772.764096  	-0.001555 
3774.692912  	-0.001762 
3776.621728  	-0.002334 
3778.550544  	-0.002874 
3780.479360  	-0.002220 
3782.408176  	-0.002090 
3784.336992  	-0.002255 
3786.265808  	-0.001877 
3788.194624  	-0.001715 
3790.123440  	-0.001786 
3792.052256  	-0.001956 
3793.981072  	-0.002539 
3795.909888  	-0.002945 
3797.838704  	-0.002654 
3799.767520  	-0.003883 
3801.696336  	-0.003743 
3803.625152  	-0.002635 
3805.553968  	-0.003638 
3807.482784  	-0.002709 
3809.411600  	-0.001530 
3811.340416  	-0.001661 
3813.269232  	-0.002591 
3815.198048  	-0.003782 
3817.126864  	-0.003067 
3819.055680  	-0.003946 
3820.984496  	-0.003961 
3822.913312  	-0.001841 
3824.842128  	-0.002233 
3826.770944  	-0.002500 
3828.699760  	-0.002488 
3830.628576  	-0.003040 
3832.557392  	-0.002931 
3834.486208  	-0.003510 
3836.415024  	-0.004312 
3838.343840  	-0.003624 
3840.272656  	-0.002843 
3842.201472  	-0.002946 
3844.130288  	-0.002697 
3846.059104  	-0.002097 
3847.987920  	-0.002455 
3849.916736  	-0.003561 
3851.845552  	-0.004996 
3853.774368  	-0.003459 
3855.703184  	-0.001841 
3857.632000  	-0.002129 
3859.560816  	-0.002570 
3861.489632  	-0.002968 
3863.418448  	-0.003107 
3865.347264  	-0.002470 
3867.276080  	-0.002787 
3869.204896  	-0.003097 
3871.133712  	-0.001583 
3873.062528  	-0.002135 
3874.991344  	-0.001735 
3876.920160  	-0.001990 
3878.848976  	-0.002694 
3880.777792  	-0.001832 
3882.706608  	-0.001744 
3884.635424  	-0.002474 
3886.564240  	-0.001532 
3888.493056  	-0.001964 
3890.421872  	-0.002424 
3892.350688  	-0.001683 
3894.279504  	-0.001761 
3896.208320  	-0.002210 
3898.137136  	-0.002390 
3900.065952  	-0.002201 
3901.994768  	-0.002005 
3903.923584  	-0.001598 
3905.852400  	-0.001176 
3907.781216  	-0.001498 
3909.710032  	-0.001950 
3911.638848  	-0.002063 
3913.567664  	-0.001940 
3915.496480  	-0.001723 
3917.425296  	-0.001049 
3919.354112  	-0.001124 
3921.282928  	-0.001389 
3923.211744  	-0.001623 
3925.140560  	-0.001460 
3927.069376  	-0.001774 
3928.998192  	-0.002059 
3930.927008  	-0.001439 
3932.855824  	-0.000725 
3934.784640  	-0.001162 
3936.713456  	-0.001529 
3938.642272  	-0.001605 
3940.571088  	-0.001920 
3942.499904  	-0.001331 
3944.428720  	-0.001096 
3946.357536  	-0.001606 
3948.286352  	-0.001392 
3950.215168  	-0.001449 
3952.143984  	-0.001839 
3954.072800  	-0.001989 
3956.001616  	-0.001971 
3957.930432  	-0.001740 
3959.859248  	-0.001494 
3961.788064  	-0.001439 
3963.716880  	-0.001503 
3965.645696  	-0.001766 
3967.574512  	-0.001682 
3969.503328  	-0.001630 
3971.432144  	-0.001795 
3973.360960  	-0.001853 
3975.289776  	-0.001533 
3977.218592  	-0.001485 
3979.147408  	-0.001579 
3981.076224  	-0.001808 
3983.005040  	-0.002053 
3984.933856  	-0.001976 
3986.862672  	-0.001762 
3988.791488  	-0.001708 
3990.720304  	-0.001533 
3992.649120  	-0.001592 
3994.577936  	-0.001731 
3996.506752  	-0.001724 
3998.435568  	-0.001687 
4000.364384  	-0.001754 