##TITLE=No Description
##DATA TYPE=INFRARED SPECTRUM
##XUNITS=1/CM
##YUNITS=Abs
399.264912  	0.587166 
401.193728  	0.577478 
403.122544  	0.572976 
405.051360  	0.567143 
406.980176  	0.561053 
408.908992  	0.554806 
410.837808  	0.558521 
412.766624  	0.553199 
414.695440  	0.553764 
416.624256  	0.536132 
418.553072  	0.526821 
420.481888  	0.530138 
422.410704  	0.540317 
424.339520  	0.540865 
426.268336  	0.549326 
428.197152  	0.542059 
430.125968  	0.529008 
432.054784  	0.520654 
433.983600  	0.530119 
435.912416  	0.520706 
437.841232  	0.515649 
439.770048  	0.517139 
441.698864  	0.518743 
443.627680  	0.509625 
445.556496  	0.508616 
447.485312  	0.507058 
449.414128  	0.506130 
451.342944  	0.502622 
453.271760  	0.501717 
455.200576  	0.497853 
457.129392  	0.496112 
459.058208  	0.493675 
460.987024  	0.494321 
462.915840  	0.494646 
464.844656  	0.497400 
466.773472  	0.497199 
468.702288  	0.497198 
470.631104  	0.495327 
472.559920  	0.497975 
474.488736  	0.492069 
476.417552  	0.491079 
478.346368  	0.490058 
480.275184  	0.489023 
482.204000  	0.490246 
484.132816  	0.490696 
486.061632  	0.486475 
487.990448  	0.489235 
489.919264  	0.489058 
491.848080  	0.486252 
493.776896  	0.481456 
495.705712  	0.483029 
497.634528  	0.481741 
499.563344  	0.482845 
501.492160  	0.483031 
503.420976  	0.481015 
505.349792  	0.478587 
507.278608  	0.478612 
509.207424  	0.475776 
511.136240  	0.476865 
513.065056  	0.478768 
514.993872  	0.479941 
516.922688  	0.479671 
518.851504  	0.481047 
520.780320  	0.479006 
522.709136  	0.479930 
524.637952  	0.477417 
526.566768  	0.473563 
528.495584  	0.472312 
530.424400  	0.470652 
532.353216  	0.466489 
534.282032  	0.464370 
536.210848  	0.459574 
538.139664  	0.454611 
540.068480  	0.450617 
541.997296  	0.448999 
543.926112  	0.445710 
545.854928  	0.443507 
547.783744  	0.438785 
549.712560  	0.435221 
551.641376  	0.431449 
553.570192  	0.429928 
555.499008  	0.427054 
557.427824  	0.424223 
559.356640  	0.420395 
561.285456  	0.416930 
563.214272  	0.413654 
565.143088  	0.411894 
567.071904  	0.408769 
569.000720  	0.405389 
570.929536  	0.400765 
572.858352  	0.397930 
574.787168  	0.395133 
576.715984  	0.392838 
578.644800  	0.389320 
580.573616  	0.385924 
582.502432  	0.381631 
584.431248  	0.379345 
586.360064  	0.377341 
588.288880  	0.375549 
590.217696  	0.373067 
592.146512  	0.371340 
594.075328  	0.368626 
596.004144  	0.366708 
597.932960  	0.365000 
599.861776  	0.364540 
601.790592  	0.363790 
603.719408  	0.362139 
605.648224  	0.360135 
607.577040  	0.359727 
609.505856  	0.358786 
611.434672  	0.357519 
613.363488  	0.355639 
615.292304  	0.354004 
617.221120  	0.351559 
619.149936  	0.349977 
621.078752  	0.347932 
623.007568  	0.346209 
624.936384  	0.344378 
626.865200  	0.342340 
628.794016  	0.340806 
630.722832  	0.339811 
632.651648  	0.338269 
634.580464  	0.337653 
636.509280  	0.336983 
638.438096  	0.336059 
640.366912  	0.335687 
642.295728  	0.334657 
644.224544  	0.331711 
646.153360  	0.328689 
648.082176  	0.325700 
650.010992  	0.322734 
651.939808  	0.319213 
653.868624  	0.316061 
655.797440  	0.312607 
657.726256  	0.308999 
659.655072  	0.305599 
661.583888  	0.302780 
663.512704  	0.299225 
665.441520  	0.296669 
667.370336  	0.292229 
669.299152  	0.288385 
671.227968  	0.287671 
673.156784  	0.285296 
675.085600  	0.282158 
677.014416  	0.280411 
678.943232  	0.279108 
680.872048  	0.277245 
682.800864  	0.275797 
684.729680  	0.274576 
686.658496  	0.272448 
688.587312  	0.270789 
690.516128  	0.268947 
692.444944  	0.267445 
694.373760  	0.265700 
696.302576  	0.264348 
698.231392  	0.262537 
700.160208  	0.259862 
702.089024  	0.257105 
704.017840  	0.255307 
705.946656  	0.252842 
707.875472  	0.250510 
709.804288  	0.248564 
711.733104  	0.247203 
713.661920  	0.245415 
715.590736  	0.244326 
717.519552  	0.243700 
719.448368  	0.244126 
721.377184  	0.244908 
723.306000  	0.245228 
725.234816  	0.244605 
727.163632  	0.242764 
729.092448  	0.240121 
731.021264  	0.237881 
732.950080  	0.235462 
734.878896  	0.233051 
736.807712  	0.230649 
738.736528  	0.228735 
740.665344  	0.227070 
742.594160  	0.225965 
744.522976  	0.224566 
746.451792  	0.223056 
748.380608  	0.221940 
750.309424  	0.221366 
752.238240  	0.220587 
754.167056  	0.219906 
756.095872  	0.218842 
758.024688  	0.217521 
759.953504  	0.216567 
761.882320  	0.216279 
763.811136  	0.215854 
765.739952  	0.215074 
767.668768  	0.213766 
769.597584  	0.212408 
771.526400  	0.212011 
773.455216  	0.213316 
775.384032  	0.215296 
777.312848  	0.217980 
779.241664  	0.220809 
781.170480  	0.221065 
783.099296  	0.218066 
785.028112  	0.213661 
786.956928  	0.208481 
788.885744  	0.203859 
790.814560  	0.200360 
792.743376  	0.197944 
794.672192  	0.196245 
796.601008  	0.195308 
798.529824  	0.193588 
800.458640  	0.190825 
802.387456  	0.187984 
804.316272  	0.186424 
806.245088  	0.185523 
808.173904  	0.184886 
810.102720  	0.184600 
812.031536  	0.184345 
813.960352  	0.183508 
815.889168  	0.183014 
817.817984  	0.182863 
819.746800  	0.182590 
821.675616  	0.182069 
823.604432  	0.181417 
825.533248  	0.180348 
827.462064  	0.179284 
829.390880  	0.178328 
831.319696  	0.177138 
833.248512  	0.175517 
835.177328  	0.173929 
837.106144  	0.171798 
839.034960  	0.169199 
840.963776  	0.166600 
842.892592  	0.164092 
844.821408  	0.161504 
846.750224  	0.159313 
848.679040  	0.157208 
850.607856  	0.154922 
852.536672  	0.153271 
854.465488  	0.151698 
856.394304  	0.150063 
858.323120  	0.148393 
860.251936  	0.146728 
862.180752  	0.144994 
864.109568  	0.143312 
866.038384  	0.141845 
867.967200  	0.140266 
869.896016  	0.138813 
871.824832  	0.137694 
873.753648  	0.136904 
875.682464  	0.136633 
877.611280  	0.136568 
879.540096  	0.136754 
881.468912  	0.137295 
883.397728  	0.137457 
885.326544  	0.137590 
887.255360  	0.137518 
889.184176  	0.136888 
891.112992  	0.135747 
893.041808  	0.134416 
894.970624  	0.132586 
896.899440  	0.130324 
898.828256  	0.127539 
900.757072  	0.124687 
902.685888  	0.122140 
904.614704  	0.120457 
906.543520  	0.119776 
908.472336  	0.120253 
910.401152  	0.121864 
912.329968  	0.123962 
914.258784  	0.126242 
916.187600  	0.128465 
918.116416  	0.130113 
920.045232  	0.130721 
921.974048  	0.130360 
923.902864  	0.129616 
925.831680  	0.128804 
927.760496  	0.127783 
929.689312  	0.126827 
931.618128  	0.126608 
933.546944  	0.126670 
935.475760  	0.126658 
937.404576  	0.126776 
939.333392  	0.127368 
941.262208  	0.128299 
943.191024  	0.130004 
945.119840  	0.132729 
947.048656  	0.136072 
948.977472  	0.140408 
950.906288  	0.145434 
952.835104  	0.150852 
954.763920  	0.156460 
956.692736  	0.161787 
958.621552  	0.166427 
960.550368  	0.169740 
962.479184  	0.171387 
964.408000  	0.170685 
966.336816  	0.168005 
968.265632  	0.163112 
970.194448  	0.156719 
972.123264  	0.149119 
974.052080  	0.141035 
975.980896  	0.133053 
977.909712  	0.125655 
979.838528  	0.119372 
981.767344  	0.114130 
983.696160  	0.110274 
985.624976  	0.108192 
987.553792  	0.108076 
989.482608  	0.109806 
991.411424  	0.113012 
993.340240  	0.117558 
995.269056  	0.123172 
997.197872  	0.129040 
999.126688  	0.134798 
1001.055504  	0.140687 
1002.984320  	0.146333 
1004.913136  	0.151720 
1006.841952  	0.156360 
1008.770768  	0.160168 
1010.699584  	0.162925 
1012.628400  	0.164805 
1014.557216  	0.165802 
1016.486032  	0.166450 
1018.414848  	0.166985 
1020.343664  	0.167436 
1022.272480  	0.167470 
1024.201296  	0.167329 
1026.130112  	0.166226 
1028.058928  	0.166009 
1029.987744  	0.167645 
1031.916560  	0.169163 
1033.845376  	0.170642 
1035.774192  	0.172185 
1037.703008  	0.174367 
1039.631824  	0.178595 
1041.560640  	0.183910 
1043.489456  	0.190969 
1045.418272  	0.199804 
1047.347088  	0.210834 
1049.275904  	0.222650 
1051.204720  	0.234416 
1053.133536  	0.244558 
1055.062352  	0.252653 
1056.991168  	0.257945 
1058.919984  	0.262130 
1060.848800  	0.263851 
1062.777616  	0.262846 
1064.706432  	0.258764 
1066.635248  	0.254772 
1068.564064  	0.251777 
1070.492880  	0.247533 
1072.421696  	0.241768 
1074.350512  	0.236683 
1076.279328  	0.232128 
1078.208144  	0.228756 
1080.136960  	0.226430 
1082.065776  	0.224465 
1083.994592  	0.222454 
1085.923408  	0.220631 
1087.852224  	0.217530 
1089.781040  	0.214130 
1091.709856  	0.209690 
1093.638672  	0.203904 
1095.567488  	0.196535 
1097.496304  	0.188807 
1099.425120  	0.180529 
1101.353936  	0.172032 
1103.282752  	0.163326 
1105.211568  	0.154774 
1107.140384  	0.146598 
1109.069200  	0.138699 
1110.998016  	0.131393 
1112.926832  	0.124667 
1114.855648  	0.118103 
1116.784464  	0.111512 
1118.713280  	0.105660 
1120.642096  	0.100540 
1122.570912  	0.095311 
1124.499728  	0.090367 
1126.428544  	0.085717 
1128.357360  	0.081263 
1130.286176  	0.077210 
1132.214992  	0.073753 
1134.143808  	0.070810 
1136.072624  	0.068074 
1138.001440  	0.065371 
1139.930256  	0.062789 
1141.859072  	0.060683 
1143.787888  	0.058581 
1145.716704  	0.056894 
1147.645520  	0.055758 
1149.574336  	0.054987 
1151.503152  	0.054271 
1153.431968  	0.053964 
1155.360784  	0.053986 
1157.289600  	0.054151 
1159.218416  	0.054711 
1161.147232  	0.055589 
1163.076048  	0.056344 
1165.004864  	0.057476 
1166.933680  	0.058744 
1168.862496  	0.060312 
1170.791312  	0.062179 
1172.720128  	0.064085 
1174.648944  	0.066030 
1176.577760  	0.068075 
1178.506576  	0.070091 
1180.435392  	0.072175 
1182.364208  	0.074404 
1184.293024  	0.076877 
1186.221840  	0.079374 
1188.150656  	0.082097 
1190.079472  	0.085164 
1192.008288  	0.088691 
1193.937104  	0.092783 
1195.865920  	0.097620 
1197.794736  	0.102575 
1199.723552  	0.107882 
1201.652368  	0.113520 
1203.581184  	0.119175 
1205.510000  	0.124801 
1207.438816  	0.130383 
1209.367632  	0.135520 
1211.296448  	0.140287 
1213.225264  	0.144862 
1215.154080  	0.148510 
1217.082896  	0.151531 
1219.011712  	0.153829 
1220.940528  	0.155796 
1222.869344  	0.157192 
1224.798160  	0.157956 
1226.726976  	0.158283 
1228.655792  	0.158334 
1230.584608  	0.157795 
1232.513424  	0.156817 
1234.442240  	0.154960 
1236.371056  	0.152300 
1238.299872  	0.149147 
1240.228688  	0.144686 
1242.157504  	0.139610 
1244.086320  	0.134970 
1246.015136  	0.129473 
1247.943952  	0.123462 
1249.872768  	0.117550 
1251.801584  	0.112172 
1253.730400  	0.106812 
1255.659216  	0.101683 
1257.588032  	0.096818 
1259.516848  	0.092200 
1261.445664  	0.087989 
1263.374480  	0.084156 
1265.303296  	0.080843 
1267.232112  	0.078292 
1269.160928  	0.076490 
1271.089744  	0.075380 
1273.018560  	0.074984 
1274.947376  	0.075081 
1276.876192  	0.075179 
1278.805008  	0.074838 
1280.733824  	0.073601 
1282.662640  	0.071161 
1284.591456  	0.067868 
1286.520272  	0.064615 
1288.449088  	0.061951 
1290.377904  	0.059795 
1292.306720  	0.058072 
1294.235536  	0.056111 
1296.164352  	0.053442 
1298.093168  	0.050340 
1300.021984  	0.047455 
1301.950800  	0.044777 
1303.879616  	0.042509 
1305.808432  	0.040679 
1307.737248  	0.039394 
1309.666064  	0.038302 
1311.594880  	0.037887 
1313.523696  	0.037864 
1315.452512  	0.037884 
1317.381328  	0.038243 
1319.310144  	0.038804 
1321.238960  	0.039376 
1323.167776  	0.040055 
1325.096592  	0.040532 
1327.025408  	0.040592 
1328.954224  	0.040149 
1330.883040  	0.039499 
1332.811856  	0.038573 
1334.740672  	0.037705 
1336.669488  	0.036985 
1338.598304  	0.036764 
1340.527120  	0.036298 
1342.455936  	0.035465 
1344.384752  	0.035249 
1346.313568  	0.035739 
1348.242384  	0.036709 
1350.171200  	0.038157 
1352.100016  	0.039695 
1354.028832  	0.041289 
1355.957648  	0.043037 
1357.886464  	0.044684 
1359.815280  	0.046070 
1361.744096  	0.047608 
1363.672912  	0.049013 
1365.601728  	0.049385 
1367.530544  	0.049618 
1369.459360  	0.049741 
1371.388176  	0.049091 
1373.316992  	0.048013 
1375.245808  	0.046551 
1377.174624  	0.045055 
1379.103440  	0.043425 
1381.032256  	0.041731 
1382.961072  	0.040453 
1384.889888  	0.039736 
1386.818704  	0.039374 
1388.747520  	0.038624 
1390.676336  	0.037032 
1392.605152  	0.034973 
1394.533968  	0.034287 
1396.462784  	0.035766 
1398.391600  	0.036229 
1400.320416  	0.036592 
1402.249232  	0.036685 
1404.178048  	0.037534 
1406.106864  	0.038756 
1408.035680  	0.040070 
1409.964496  	0.041682 
1411.893312  	0.043754 
1413.822128  	0.045555 
1415.750944  	0.047290 
1417.679760  	0.048045 
1419.608576  	0.048323 
1421.537392  	0.048157 
1423.466208  	0.047734 
1425.395024  	0.046774 
1427.323840  	0.045188 
1429.252656  	0.043674 
1431.181472  	0.042813 
1433.110288  	0.042335 
1435.039104  	0.042024 
1436.967920  	0.042550 
1438.896736  	0.043101 
1440.825552  	0.043223 
1442.754368  	0.043555 
1444.683184  	0.043475 
1446.612000  	0.043317 
1448.540816  	0.043457 
1450.469632  	0.043659 
1452.398448  	0.043671 
1454.327264  	0.043369 
1456.256080  	0.042961 
1458.184896  	0.043993 
1460.113712  	0.044744 
1462.042528  	0.044854 
1463.971344  	0.044773 
1465.900160  	0.046662 
1467.828976  	0.048537 
1469.757792  	0.049972 
1471.686608  	0.051922 
1473.615424  	0.056301 
1475.544240  	0.059333 
1477.473056  	0.061457 
1479.401872  	0.061975 
1481.330688  	0.062273 
1483.259504  	0.062131 
1485.188320  	0.061153 
1487.117136  	0.059334 
1489.045952  	0.057608 
1490.974768  	0.055341 
1492.903584  	0.052686 
1494.832400  	0.049604 
1496.761216  	0.046660 
1498.690032  	0.044514 
1500.618848  	0.043272 
1502.547664  	0.041462 
1504.476480  	0.038582 
1506.405296  	0.037001 
1508.334112  	0.039323 
1510.262928  	0.038790 
1512.191744  	0.037656 
1514.120560  	0.036563 
1516.049376  	0.036234 
1517.978192  	0.036410 
1519.907008  	0.036596 
1521.835824  	0.038330 
1523.764640  	0.040814 
1525.693456  	0.043233 
1527.622272  	0.045631 
1529.551088  	0.046883 
1531.479904  	0.047063 
1533.408720  	0.046790 
1535.337536  	0.046675 
1537.266352  	0.044108 
1539.195168  	0.039792 
1541.123984  	0.038530 
1543.052800  	0.039988 
1544.981616  	0.040336 
1546.910432  	0.039552 
1548.839248  	0.038758 
1550.768064  	0.038874 
1552.696880  	0.038164 
1554.625696  	0.038152 
1556.554512  	0.036695 
1558.483328  	0.035496 
1560.412144  	0.041128 
1562.340960  	0.043666 
1564.269776  	0.045039 
1566.198592  	0.047847 
1568.127408  	0.049662 
1570.056224  	0.053519 
1571.985040  	0.057182 
1573.913856  	0.058139 
1575.842672  	0.058536 
1577.771488  	0.061321 
1579.700304  	0.061950 
1581.629120  	0.062062 
1583.557936  	0.062397 
1585.486752  	0.063683 
1587.415568  	0.065706 
1589.344384  	0.068948 
1591.273200  	0.072663 
1593.202016  	0.076997 
1595.130832  	0.081195 
1597.059648  	0.085344 
1598.988464  	0.088365 
1600.917280  	0.090742 
1602.846096  	0.092066 
1604.774912  	0.092983 
1606.703728  	0.092721 
1608.632544  	0.092452 
1610.561360  	0.091965 
1612.490176  	0.091856 
1614.418992  	0.091053 
1616.347808  	0.091837 
1618.276624  	0.095527 
1620.205440  	0.098818 
1622.134256  	0.101616 
1624.063072  	0.107764 
1625.991888  	0.113144 
1627.920704  	0.118941 
1629.849520  	0.125769 
1631.778336  	0.131178 
1633.707152  	0.134267 
1635.635968  	0.139686 
1637.564784  	0.147165 
1639.493600  	0.151250 
1641.422416  	0.154223 
1643.351232  	0.155967 
1645.280048  	0.155833 
1647.208864  	0.157115 
1649.137680  	0.158424 
1651.066496  	0.156397 
1652.995312  	0.153898 
1654.924128  	0.157430 
1656.852944  	0.156901 
1658.781760  	0.155825 
1660.710576  	0.154305 
1662.639392  	0.153077 
1664.568208  	0.152744 
1666.497024  	0.151583 
1668.425840  	0.149429 
1670.354656  	0.148786 
1672.283472  	0.148865 
1674.212288  	0.148274 
1676.141104  	0.149243 
1678.069920  	0.150306 
1679.998736  	0.150797 
1681.927552  	0.150043 
1683.856368  	0.148723 
1685.785184  	0.151388 
1687.714000  	0.151533 
1689.642816  	0.150682 
1691.571632  	0.148927 
1693.500448  	0.146094 
1695.429264  	0.142169 
1697.358080  	0.139265 
1699.286896  	0.135331 
1701.215712  	0.131922 
1703.144528  	0.128712 
1705.073344  	0.124071 
1707.002160  	0.119508 
1708.930976  	0.115329 
1710.859792  	0.110592 
1712.788608  	0.105378 
1714.717424  	0.099609 
1716.646240  	0.093045 
1718.575056  	0.087357 
1720.503872  	0.082809 
1722.432688  	0.078009 
1724.361504  	0.072402 
1726.290320  	0.067180 
1728.219136  	0.061990 
1730.147952  	0.057061 
1732.076768  	0.051931 
1734.005584  	0.046777 
1735.934400  	0.042310 
1737.863216  	0.038567 
1739.792032  	0.033914 
1741.720848  	0.031117 
1743.649664  	0.028515 
1745.578480  	0.025512 
1747.507296  	0.022400 
1749.436112  	0.020738 
1751.364928  	0.019728 
1753.293744  	0.018588 
1755.222560  	0.016940 
1757.151376  	0.016261 
1759.080192  	0.015202 
1761.009008  	0.014552 
1762.937824  	0.014235 
1764.866640  	0.013868 
1766.795456  	0.013123 
1768.724272  	0.012773 
1770.653088  	0.010928 
1772.581904  	0.010628 
1774.510720  	0.011532 
1776.439536  	0.011790 
1778.368352  	0.011451 
1780.297168  	0.011523 
1782.225984  	0.011234 
1784.154800  	0.011102 
1786.083616  	0.011188 
1788.012432  	0.010901 
1789.941248  	0.009948 
1791.870064  	0.009775 
1793.798880  	0.010256 
1795.727696  	0.010558 
1797.656512  	0.009876 
1799.585328  	0.009527 
1801.514144  	0.009796 
1803.442960  	0.009659 
1805.371776  	0.009218 
1807.300592  	0.009288 
1809.229408  	0.008859 
1811.158224  	0.008931 
1813.087040  	0.008871 
1815.015856  	0.008542 
1816.944672  	0.008375 
1818.873488  	0.008571 
1820.802304  	0.008656 
1822.731120  	0.008790 
1824.659936  	0.008596 
1826.588752  	0.008526 
1828.517568  	0.007677 
1830.446384  	0.008185 
1832.375200  	0.008680 
1834.304016  	0.008541 
1836.232832  	0.008243 
1838.161648  	0.008652 
1840.090464  	0.008457 
1842.019280  	0.007788 
1843.948096  	0.007334 
1845.876912  	0.008239 
1847.805728  	0.008534 
1849.734544  	0.008645 
1851.663360  	0.008191 
1853.592176  	0.008202 
1855.520992  	0.008259 
1857.449808  	0.008795 
1859.378624  	0.008750 
1861.307440  	0.008437 
1863.236256  	0.007771 
1865.165072  	0.007636 
1867.093888  	0.007541 
1869.022704  	0.008359 
1870.951520  	0.008624 
1872.880336  	0.008668 
1874.809152  	0.008168 
1876.737968  	0.007968 
1878.666784  	0.007740 
1880.595600  	0.008036 
1882.524416  	0.008125 
1884.453232  	0.008020 
1886.382048  	0.007568 
1888.310864  	0.007486 
1890.239680  	0.007869 
1892.168496  	0.008258 
1894.097312  	0.007776 
1896.026128  	0.007722 
1897.954944  	0.007378 
1899.883760  	0.007619 
1901.812576  	0.007409 
1903.741392  	0.007345 
1905.670208  	0.007288 
1907.599024  	0.007461 
1909.527840  	0.007369 
1911.456656  	0.007740 
1913.385472  	0.007842 
1915.314288  	0.008015 
1917.243104  	0.007773 
1919.171920  	0.007817 
1921.100736  	0.007656 
1923.029552  	0.008136 
1924.958368  	0.007526 
1926.887184  	0.007785 
1928.816000  	0.007584 
1930.744816  	0.007127 
1932.673632  	0.006522 
1934.602448  	0.007241 
1936.531264  	0.007663 
1938.460080  	0.007694 
1940.388896  	0.007392 
1942.317712  	0.007530 
1944.246528  	0.007446 
1946.175344  	0.007628 
1948.104160  	0.007021 
1950.032976  	0.007354 
1951.961792  	0.007511 
1953.890608  	0.007699 
1955.819424  	0.006976 
1957.748240  	0.006924 
1959.677056  	0.007137 
1961.605872  	0.007086 
1963.534688  	0.006376 
1965.463504  	0.007403 
1967.392320  	0.007213 
1969.321136  	0.007096 
1971.249952  	0.007906 
1973.178768  	0.009231 
1975.107584  	0.007195 
1977.036400  	0.007415 
1978.965216  	0.010078 
1980.894032  	0.009947 
1982.822848  	0.007110 
1984.751664  	0.007361 
1986.680480  	0.008195 
1988.609296  	0.008927 
1990.538112  	0.008969 
1992.466928  	0.009309 
1994.395744  	0.008567 
1996.324560  	0.007732 
1998.253376  	0.007103 
2000.182192  	0.007418 
2002.111008  	0.007582 
2004.039824  	0.007468 
2005.968640  	0.006040 
2007.897456  	0.007345 
2009.826272  	0.007739 
2011.755088  	0.007313 
2013.683904  	0.007562 
2015.612720  	0.008445 
2017.541536  	0.008237 
2019.470352  	0.007361 
2021.399168  	0.006244 
2023.327984  	0.006890 
2025.256800  	0.006781 
2027.185616  	0.006261 
2029.114432  	0.006995 
2031.043248  	0.009034 
2032.972064  	0.009137 
2034.900880  	0.009385 
2036.829696  	0.009295 
2038.758512  	0.009125 
2040.687328  	0.008314 
2042.616144  	0.008224 
2044.544960  	0.008141 
2046.473776  	0.008935 
2048.402592  	0.008854 
2050.331408  	0.009165 
2052.260224  	0.008787 
2054.189040  	0.008679 
2056.117856  	0.007749 
2058.046672  	0.008003 
2059.975488  	0.007786 
2061.904304  	0.007683 
2063.833120  	0.008416 
2065.761936  	0.008606 
2067.690752  	0.007739 
2069.619568  	0.007372 
2071.548384  	0.006779 
2073.477200  	0.007320 
2075.406016  	0.008298 
2077.334832  	0.008624 
2079.263648  	0.007954 
2081.192464  	0.007965 
2083.121280  	0.007809 
2085.050096  	0.008130 
2086.978912  	0.008391 
2088.907728  	0.008559 
2090.836544  	0.007823 
2092.765360  	0.007137 
2094.694176  	0.007448 
2096.622992  	0.007864 
2098.551808  	0.007450 
2100.480624  	0.007931 
2102.409440  	0.008286 
2104.338256  	0.008311 
2106.267072  	0.008128 
2108.195888  	0.008241 
2110.124704  	0.008692 
2112.053520  	0.009154 
2113.982336  	0.008698 
2115.911152  	0.008684 
2117.839968  	0.008203 
2119.768784  	0.007851 
2121.697600  	0.007456 
2123.626416  	0.007205 
2125.555232  	0.007388 
2127.484048  	0.007826 
2129.412864  	0.007339 
2131.341680  	0.006199 
2133.270496  	0.006616 
2135.199312  	0.007672 
2137.128128  	0.007749 
2139.056944  	0.007618 
2140.985760  	0.007052 
2142.914576  	0.008166 
2144.843392  	0.007924 
2146.772208  	0.007322 
2148.701024  	0.007019 
2150.629840  	0.006842 
2152.558656  	0.005871 
2154.487472  	0.005325 
2156.416288  	0.004335 
2158.345104  	0.006558 
2160.273920  	0.009417 
2162.202736  	0.009824 
2164.131552  	0.009826 
2166.060368  	0.011135 
2167.989184  	0.009906 
2169.918000  	0.009034 
2171.846816  	0.008937 
2173.775632  	0.009505 
2175.704448  	0.009788 
2177.633264  	0.009597 
2179.562080  	0.009193 
2181.490896  	0.008741 
2183.419712  	0.007641 
2185.348528  	0.008047 
2187.277344  	0.008343 
2189.206160  	0.008946 
2191.134976  	0.009028 
2193.063792  	0.009677 
2194.992608  	0.010176 
2196.921424  	0.009557 
2198.850240  	0.009680 
2200.779056  	0.009796 
2202.707872  	0.009184 
2204.636688  	0.009147 
2206.565504  	0.009495 
2208.494320  	0.010198 
2210.423136  	0.008649 
2212.351952  	0.008513 
2214.280768  	0.009202 
2216.209584  	0.008964 
2218.138400  	0.008927 
2220.067216  	0.009092 
2221.996032  	0.008798 
2223.924848  	0.008220 
2225.853664  	0.008592 
2227.782480  	0.009561 
2229.711296  	0.009820 
2231.640112  	0.009230 
2233.568928  	0.008481 
2235.497744  	0.008662 
2237.426560  	0.008922 
2239.355376  	0.008959 
2241.284192  	0.008897 
2243.213008  	0.008817 
2245.141824  	0.008502 
2247.070640  	0.008357 
2248.999456  	0.008406 
2250.928272  	0.008627 
2252.857088  	0.008667 
2254.785904  	0.008766 
2256.714720  	0.009433 
2258.643536  	0.009945 
2260.572352  	0.009184 
2262.501168  	0.008836 
2264.429984  	0.008729 
2266.358800  	0.009215 
2268.287616  	0.009382 
2270.216432  	0.009409 
2272.145248  	0.009017 
2274.074064  	0.009095 
2276.002880  	0.009311 
2277.931696  	0.009869 
2279.860512  	0.010095 
2281.789328  	0.010118 
2283.718144  	0.010145 
2285.646960  	0.010150 
2287.575776  	0.010266 
2289.504592  	0.010278 
2291.433408  	0.009958 
2293.362224  	0.009773 
2295.291040  	0.009844 
2297.219856  	0.010210 
2299.148672  	0.010146 
2301.077488  	0.009966 
2303.006304  	0.009861 
2304.935120  	0.009872 
2306.863936  	0.009716 
2308.792752  	0.009703 
2310.721568  	0.009799 
2312.650384  	0.009548 
2314.579200  	0.008895 
2316.508016  	0.008628 
2318.436832  	0.008092 
2320.365648  	0.007384 
2322.294464  	0.006743 
2324.223280  	0.005719 
2326.152096  	0.004011 
2328.080912  	0.002864 
2330.009728  	0.002449 
2331.938544  	0.002119 
2333.867360  	0.000874 
2335.796176  	-0.000163 
2337.724992  	-0.000615 
2339.653808  	-0.000802 
2341.582624  	-0.000837 
2343.511440  	0.000551 
2345.440256  	0.002722 
2347.369072  	0.005181 
2349.297888  	0.005009 
2351.226704  	0.002601 
2353.155520  	0.000192 
2355.084336  	-0.002142 
2357.013152  	-0.003593 
2358.941968  	-0.004079 
2360.870784  	-0.004992 
2362.799600  	-0.004753 
2364.728416  	-0.003195 
2366.657232  	-0.001466 
2368.586048  	0.000304 
2370.514864  	0.002736 
2372.443680  	0.004924 
2374.372496  	0.006875 
2376.301312  	0.008246 
2378.230128  	0.009372 
2380.158944  	0.009995 
2382.087760  	0.010281 
2384.016576  	0.010432 
2385.945392  	0.010384 
2387.874208  	0.010078 
2389.803024  	0.009872 
2391.731840  	0.009750 
2393.660656  	0.009901 
2395.589472  	0.010112 
2397.518288  	0.010182 
2399.447104  	0.009896 
2401.375920  	0.009606 
2403.304736  	0.009794 
2405.233552  	0.009996 
2407.162368  	0.010051 
2409.091184  	0.009851 
2411.020000  	0.009947 
2412.948816  	0.010259 
2414.877632  	0.010347 
2416.806448  	0.010367 
2418.735264  	0.010471 
2420.664080  	0.010446 
2422.592896  	0.010170 
2424.521712  	0.010184 
2426.450528  	0.010417 
2428.379344  	0.010401 
2430.308160  	0.010380 
2432.236976  	0.010411 
2434.165792  	0.010555 
2436.094608  	0.011001 
2438.023424  	0.011281 
2439.952240  	0.011481 
2441.881056  	0.011459 
2443.809872  	0.011215 
2445.738688  	0.011043 
2447.667504  	0.011260 
2449.596320  	0.011492 
2451.525136  	0.011509 
2453.453952  	0.011507 
2455.382768  	0.011744 
2457.311584  	0.011946 
2459.240400  	0.011905 
2461.169216  	0.011797 
2463.098032  	0.011666 
2465.026848  	0.011613 
2466.955664  	0.011868 
2468.884480  	0.011736 
2470.813296  	0.011559 
2472.742112  	0.011619 
2474.670928  	0.011768 
2476.599744  	0.011921 
2478.528560  	0.011839 
2480.457376  	0.011920 
2482.386192  	0.012111 
2484.315008  	0.012125 
2486.243824  	0.012336 
2488.172640  	0.012322 
2490.101456  	0.012299 
2492.030272  	0.012518 
2493.959088  	0.012570 
2495.887904  	0.012404 
2497.816720  	0.012440 
2499.745536  	0.012573 
2501.674352  	0.012879 
2503.603168  	0.012773 
2505.531984  	0.012709 
2507.460800  	0.012768 
2509.389616  	0.012744 
2511.318432  	0.012662 
2513.247248  	0.012732 
2515.176064  	0.012792 
2517.104880  	0.013084 
2519.033696  	0.013232 
2520.962512  	0.013277 
2522.891328  	0.013405 
2524.820144  	0.013465 
2526.748960  	0.013368 
2528.677776  	0.013480 
2530.606592  	0.013603 
2532.535408  	0.013673 
2534.464224  	0.013831 
2536.393040  	0.013877 
2538.321856  	0.013823 
2540.250672  	0.013913 
2542.179488  	0.013874 
2544.108304  	0.013972 
2546.037120  	0.013891 
2547.965936  	0.014259 
2549.894752  	0.014534 
2551.823568  	0.014594 
2553.752384  	0.014597 
2555.681200  	0.014672 
2557.610016  	0.014753 
2559.538832  	0.014777 
2561.467648  	0.014800 
2563.396464  	0.015018 
2565.325280  	0.015185 
2567.254096  	0.015222 
2569.182912  	0.015123 
2571.111728  	0.015050 
2573.040544  	0.014804 
2574.969360  	0.014877 
2576.898176  	0.015204 
2578.826992  	0.015566 
2580.755808  	0.015547 
2582.684624  	0.015363 
2584.613440  	0.015249 
2586.542256  	0.015522 
2588.471072  	0.015796 
2590.399888  	0.015645 
2592.328704  	0.015641 
2594.257520  	0.015930 
2596.186336  	0.016240 
2598.115152  	0.016335 
2600.043968  	0.016184 
2601.972784  	0.016304 
2603.901600  	0.016453 
2605.830416  	0.016412 
2607.759232  	0.016226 
2609.688048  	0.016419 
2611.616864  	0.016659 
2613.545680  	0.016828 
2615.474496  	0.016907 
2617.403312  	0.016951 
2619.332128  	0.017095 
2621.260944  	0.017268 
2623.189760  	0.017274 
2625.118576  	0.017259 
2627.047392  	0.017432 
2628.976208  	0.017764 
2630.905024  	0.017850 
2632.833840  	0.018001 
2634.762656  	0.018114 
2636.691472  	0.018066 
2638.620288  	0.018035 
2640.549104  	0.018128 
2642.477920  	0.018227 
2644.406736  	0.018336 
2646.335552  	0.018602 
2648.264368  	0.018781 
2650.193184  	0.018885 
2652.122000  	0.019071 
2654.050816  	0.019241 
2655.979632  	0.019188 
2657.908448  	0.019094 
2659.837264  	0.019083 
2661.766080  	0.019026 
2663.694896  	0.019075 
2665.623712  	0.019202 
2667.552528  	0.019240 
2669.481344  	0.019334 
2671.410160  	0.019558 
2673.338976  	0.019676 
2675.267792  	0.019786 
2677.196608  	0.019925 
2679.125424  	0.020078 
2681.054240  	0.020116 
2682.983056  	0.020148 
2684.911872  	0.020352 
2686.840688  	0.020482 
2688.769504  	0.020567 
2690.698320  	0.020634 
2692.627136  	0.020768 
2694.555952  	0.020876 
2696.484768  	0.020795 
2698.413584  	0.020839 
2700.342400  	0.020921 
2702.271216  	0.021033 
2704.200032  	0.021223 
2706.128848  	0.021378 
2708.057664  	0.021442 
2709.986480  	0.021529 
2711.915296  	0.021625 
2713.844112  	0.021703 
2715.772928  	0.021845 
2717.701744  	0.021899 
2719.630560  	0.021825 
2721.559376  	0.021925 
2723.488192  	0.022087 
2725.417008  	0.022290 
2727.345824  	0.022460 
2729.274640  	0.022475 
2731.203456  	0.022512 
2733.132272  	0.022666 
2735.061088  	0.022815 
2736.989904  	0.022894 
2738.918720  	0.022884 
2740.847536  	0.022837 
2742.776352  	0.022950 
2744.705168  	0.023164 
2746.633984  	0.023301 
2748.562800  	0.023469 
2750.491616  	0.023564 
2752.420432  	0.023512 
2754.349248  	0.023478 
2756.278064  	0.023530 
2758.206880  	0.023626 
2760.135696  	0.023840 
2762.064512  	0.023880 
2763.993328  	0.023871 
2765.922144  	0.023959 
2767.850960  	0.023921 
2769.779776  	0.023864 
2771.708592  	0.024069 
2773.637408  	0.024163 
2775.566224  	0.024172 
2777.495040  	0.024149 
2779.423856  	0.024172 
2781.352672  	0.024299 
2783.281488  	0.024477 
2785.210304  	0.024474 
2787.139120  	0.024587 
2789.067936  	0.024758 
2790.996752  	0.024823 
2792.925568  	0.024911 
2794.854384  	0.025052 
2796.783200  	0.025119 
2798.712016  	0.025058 
2800.640832  	0.025088 
2802.569648  	0.025281 
2804.498464  	0.025439 
2806.427280  	0.025462 
2808.356096  	0.025539 
2810.284912  	0.025747 
2812.213728  	0.025846 
2814.142544  	0.025921 
2816.071360  	0.026052 
2818.000176  	0.026007 
2819.928992  	0.025825 
2821.857808  	0.025811 
2823.786624  	0.025861 
2825.715440  	0.025869 
2827.644256  	0.025761 
2829.573072  	0.025702 
2831.501888  	0.025582 
2833.430704  	0.025541 
2835.359520  	0.025424 
2837.288336  	0.025195 
2839.217152  	0.025178 
2841.145968  	0.025144 
2843.074784  	0.024917 
2845.003600  	0.024814 
2846.932416  	0.024863 
2848.861232  	0.024849 
2850.790048  	0.024671 
2852.718864  	0.024468 
2854.647680  	0.024330 
2856.576496  	0.024214 
2858.505312  	0.024003 
2860.434128  	0.023727 
2862.362944  	0.023532 
2864.291760  	0.023309 
2866.220576  	0.022943 
2868.149392  	0.022946 
2870.078208  	0.023275 
2872.007024  	0.023539 
2873.935840  	0.023732 
2875.864656  	0.023896 
2877.793472  	0.023996 
2879.722288  	0.024009 
2881.651104  	0.024062 
2883.579920  	0.024116 
2885.508736  	0.024213 
2887.437552  	0.024422 
2889.366368  	0.024433 
2891.295184  	0.024233 
2893.224000  	0.024190 
2895.152816  	0.024343 
2897.081632  	0.024025 
2899.010448  	0.023160 
2900.939264  	0.022842 
2902.868080  	0.023558 
2904.796896  	0.024120 
2906.725712  	0.024384 
2908.654528  	0.024631 
2910.583344  	0.024902 
2912.512160  	0.025531 
2914.440976  	0.026311 
2916.369792  	0.026793 
2918.298608  	0.027103 
2920.227424  	0.027555 
2922.156240  	0.028239 
2924.085056  	0.028736 
2926.013872  	0.029398 
2927.942688  	0.030147 
2929.871504  	0.030809 
2931.800320  	0.031362 
2933.729136  	0.031639 
2935.657952  	0.031872 
2937.586768  	0.032367 
2939.515584  	0.032670 
2941.444400  	0.032773 
2943.373216  	0.032879 
2945.302032  	0.033032 
2947.230848  	0.033056 
2949.159664  	0.032862 
2951.088480  	0.032440 
2953.017296  	0.032239 
2954.946112  	0.031805 
2956.874928  	0.031284 
2958.803744  	0.030884 
2960.732560  	0.030471 
2962.661376  	0.030102 
2964.590192  	0.029557 
2966.519008  	0.029049 
2968.447824  	0.028536 
2970.376640  	0.028109 
2972.305456  	0.027737 
2974.234272  	0.027693 
2976.163088  	0.027742 
2978.091904  	0.027622 
2980.020720  	0.027428 
2981.949536  	0.027357 
2983.878352  	0.027120 
2985.807168  	0.026670 
2987.735984  	0.026454 
2989.664800  	0.026837 
2991.593616  	0.028111 
2993.522432  	0.028815 
2995.451248  	0.029061 
2997.380064  	0.029501 
2999.308880  	0.029967 
3001.237696  	0.030592 
3003.166512  	0.031242 
3005.095328  	0.031876 
3007.024144  	0.032537 
3008.952960  	0.033209 
3010.881776  	0.033887 
3012.810592  	0.034498 
3014.739408  	0.034998 
3016.668224  	0.035629 
3018.597040  	0.036066 
3020.525856  	0.036474 
3022.454672  	0.037056 
3024.383488  	0.037491 
3026.312304  	0.037902 
3028.241120  	0.038283 
3030.169936  	0.038531 
3032.098752  	0.039053 
3034.027568  	0.039275 
3035.956384  	0.039426 
3037.885200  	0.039781 
3039.814016  	0.040334 
3041.742832  	0.040935 
3043.671648  	0.041198 
3045.600464  	0.041375 
3047.529280  	0.041632 
3049.458096  	0.041845 
3051.386912  	0.041974 
3053.315728  	0.042239 
3055.244544  	0.042597 
3057.173360  	0.043046 
3059.102176  	0.043380 
3061.030992  	0.043536 
3062.959808  	0.043772 
3064.888624  	0.044232 
3066.817440  	0.044637 
3068.746256  	0.044808 
3070.675072  	0.044970 
3072.603888  	0.045310 
3074.532704  	0.045777 
3076.461520  	0.046211 
3078.390336  	0.046551 
3080.319152  	0.046886 
3082.247968  	0.047222 
3084.176784  	0.047557 
3086.105600  	0.047748 
3088.034416  	0.048017 
3089.963232  	0.048371 
3091.892048  	0.048622 
3093.820864  	0.048690 
3095.749680  	0.048900 
3097.678496  	0.049072 
3099.607312  	0.049464 
3101.536128  	0.049785 
3103.464944  	0.050081 
3105.393760  	0.050282 
3107.322576  	0.050579 
3109.251392  	0.050936 
3111.180208  	0.051181 
3113.109024  	0.051408 
3115.037840  	0.051541 
3116.966656  	0.051817 
3118.895472  	0.052137 
3120.824288  	0.052339 
3122.753104  	0.052481 
3124.681920  	0.052579 
3126.610736  	0.052714 
3128.539552  	0.053024 
3130.468368  	0.053133 
3132.397184  	0.053080 
3134.326000  	0.053289 
3136.254816  	0.053602 
3138.183632  	0.053806 
3140.112448  	0.053855 
3142.041264  	0.053891 
3143.970080  	0.054112 
3145.898896  	0.054358 
3147.827712  	0.054526 
3149.756528  	0.054756 
3151.685344  	0.055238 
3153.614160  	0.055591 
3155.542976  	0.055521 
3157.471792  	0.055607 
3159.400608  	0.056163 
3161.329424  	0.056665 
3163.258240  	0.056881 
3165.187056  	0.056945 
3167.115872  	0.057118 
3169.044688  	0.057297 
3170.973504  	0.057237 
3172.902320  	0.057319 
3174.831136  	0.057626 
3176.759952  	0.057845 
3178.688768  	0.058115 
3180.617584  	0.058143 
3182.546400  	0.057994 
3184.475216  	0.058311 
3186.404032  	0.058456 
3188.332848  	0.058359 
3190.261664  	0.058525 
3192.190480  	0.058598 
3194.119296  	0.058409 
3196.048112  	0.058443 
3197.976928  	0.058829 
3199.905744  	0.058975 
3201.834560  	0.058798 
3203.763376  	0.058775 
3205.692192  	0.058764 
3207.621008  	0.058512 
3209.549824  	0.058314 
3211.478640  	0.058195 
3213.407456  	0.058120 
3215.336272  	0.058319 
3217.265088  	0.058254 
3219.193904  	0.057827 
3221.122720  	0.057531 
3223.051536  	0.057364 
3224.980352  	0.057177 
3226.909168  	0.056944 
3228.837984  	0.056884 
3230.766800  	0.056934 
3232.695616  	0.056976 
3234.624432  	0.056729 
3236.553248  	0.056523 
3238.482064  	0.056411 
3240.410880  	0.056446 
3242.339696  	0.056426 
3244.268512  	0.056356 
3246.197328  	0.056276 
3248.126144  	0.056111 
3250.054960  	0.056200 
3251.983776  	0.056224 
3253.912592  	0.056257 
3255.841408  	0.056373 
3257.770224  	0.056352 
3259.699040  	0.056446 
3261.627856  	0.056553 
3263.556672  	0.056569 
3265.485488  	0.056533 
3267.414304  	0.056645 
3269.343120  	0.056863 
3271.271936  	0.056970 
3273.200752  	0.057144 
3275.129568  	0.057386 
3277.058384  	0.057306 
3278.987200  	0.057242 
3280.916016  	0.057385 
3282.844832  	0.057461 
3284.773648  	0.057590 
3286.702464  	0.057586 
3288.631280  	0.057547 
3290.560096  	0.057668 
3292.488912  	0.058013 
3294.417728  	0.058055 
3296.346544  	0.058085 
3298.275360  	0.058229 
3300.204176  	0.058506 
3302.132992  	0.058705 
3304.061808  	0.058944 
3305.990624  	0.059149 
3307.919440  	0.059201 
3309.848256  	0.059305 
3311.777072  	0.059271 
3313.705888  	0.059470 
3315.634704  	0.059756 
3317.563520  	0.059950 
3319.492336  	0.059996 
3321.421152  	0.060034 
3323.349968  	0.060193 
3325.278784  	0.060480 
3327.207600  	0.060534 
3329.136416  	0.060419 
3331.065232  	0.060354 
3332.994048  	0.060445 
3334.922864  	0.060507 
3336.851680  	0.060570 
3338.780496  	0.060400 
3340.709312  	0.060208 
3342.638128  	0.060188 
3344.566944  	0.060220 
3346.495760  	0.060021 
3348.424576  	0.059768 
3350.353392  	0.059599 
3352.282208  	0.059399 
3354.211024  	0.059363 
3356.139840  	0.059318 
3358.068656  	0.058893 
3359.997472  	0.058515 
3361.926288  	0.058272 
3363.855104  	0.057930 
3365.783920  	0.057794 
3367.712736  	0.057675 
3369.641552  	0.057234 
3371.570368  	0.056892 
3373.499184  	0.056666 
3375.428000  	0.056384 
3377.356816  	0.056210 
3379.285632  	0.056027 
3381.214448  	0.055814 
3383.143264  	0.055532 
3385.072080  	0.055391 
3387.000896  	0.055047 
3388.929712  	0.054573 
3390.858528  	0.054365 
3392.787344  	0.054289 
3394.716160  	0.053918 
3396.644976  	0.053504 
3398.573792  	0.053267 
3400.502608  	0.052887 
3402.431424  	0.052448 
3404.360240  	0.052240 
3406.289056  	0.052036 
3408.217872  	0.051562 
3410.146688  	0.051172 
3412.075504  	0.051048 
3414.004320  	0.050760 
3415.933136  	0.050377 
3417.861952  	0.050050 
3419.790768  	0.049928 
3421.719584  	0.049718 
3423.648400  	0.049208 
3425.577216  	0.048826 
3427.506032  	0.048538 
3429.434848  	0.047929 
3431.363664  	0.047632 
3433.292480  	0.047576 
3435.221296  	0.047266 
3437.150112  	0.046919 
3439.078928  	0.046685 
3441.007744  	0.046417 
3442.936560  	0.046213 
3444.865376  	0.045647 
3446.794192  	0.045093 
3448.723008  	0.044871 
3450.651824  	0.044337 
3452.580640  	0.043807 
3454.509456  	0.043434 
3456.438272  	0.043036 
3458.367088  	0.042695 
3460.295904  	0.042553 
3462.224720  	0.042142 
3464.153536  	0.041527 
3466.082352  	0.041119 
3468.011168  	0.040954 
3469.939984  	0.040501 
3471.868800  	0.039887 
3473.797616  	0.039452 
3475.726432  	0.038990 
3477.655248  	0.038411 
3479.584064  	0.037978 
3481.512880  	0.037723 
3483.441696  	0.037261 
3485.370512  	0.036525 
3487.299328  	0.036050 
3489.228144  	0.035811 
3491.156960  	0.035394 
3493.085776  	0.035038 
3495.014592  	0.034613 
3496.943408  	0.034265 
3498.872224  	0.033696 
3500.801040  	0.033372 
3502.729856  	0.033108 
3504.658672  	0.032687 
3506.587488  	0.031879 
3508.516304  	0.031580 
3510.445120  	0.031594 
3512.373936  	0.031449 
3514.302752  	0.031025 
3516.231568  	0.030314 
3518.160384  	0.029800 
3520.089200  	0.029532 
3522.018016  	0.029455 
3523.946832  	0.029550 
3525.875648  	0.029324 
3527.804464  	0.028963 
3529.733280  	0.028490 
3531.662096  	0.027835 
3533.590912  	0.027216 
3535.519728  	0.027017 
3537.448544  	0.027010 
3539.377360  	0.026633 
3541.306176  	0.025903 
3543.234992  	0.025434 
3545.163808  	0.025917 
3547.092624  	0.025842 
3549.021440  	0.024661 
3550.950256  	0.024005 
3552.879072  	0.024244 
3554.807888  	0.024095 
3556.736704  	0.023484 
3558.665520  	0.023060 
3560.594336  	0.022867 
3562.523152  	0.022281 
3564.451968  	0.021703 
3566.380784  	0.022010 
3568.309600  	0.022571 
3570.238416  	0.021673 
3572.167232  	0.020505 
3574.096048  	0.019852 
3576.024864  	0.019630 
3577.953680  	0.019287 
3579.882496  	0.019057 
3581.811312  	0.018844 
3583.740128  	0.018011 
3585.668944  	0.017119 
3587.597760  	0.017870 
3589.526576  	0.018041 
3591.455392  	0.016465 
3593.384208  	0.015896 
3595.313024  	0.015939 
3597.241840  	0.015399 
3599.170656  	0.014369 
3601.099472  	0.014003 
3603.028288  	0.013839 
3604.957104  	0.013141 
3606.885920  	0.012351 
3608.814736  	0.012495 
3610.743552  	0.011921 
3612.672368  	0.011259 
3614.601184  	0.010996 
3616.530000  	0.009663 
3618.458816  	0.009320 
3620.387632  	0.010015 
3622.316448  	0.009445 
3624.245264  	0.008287 
3626.174080  	0.006626 
3628.102896  	0.005718 
3630.031712  	0.008119 
3631.960528  	0.007351 
3633.889344  	0.006193 
3635.818160  	0.005538 
3637.746976  	0.005075 
3639.675792  	0.005040 
3641.604608  	0.004750 
3643.533424  	0.003964 
3645.462240  	0.001864 
3647.391056  	0.000370 
3649.319872  	0.000954 
3651.248688  	0.002927 
3653.177504  	0.001962 
3655.106320  	0.000047 
3657.035136  	0.000604 
3658.963952  	0.000447 
3660.892768  	-0.000262 
3662.821584  	-0.000705 
3664.750400  	-0.000914 
3666.679216  	-0.002099 
3668.608032  	-0.003859 
3670.536848  	-0.002846 
3672.465664  	-0.003004 
3674.394480  	-0.005186 
3676.323296  	-0.002384 
3678.252112  	-0.001216 
3680.180928  	-0.001295 
3682.109744  	-0.001738 
3684.038560  	-0.002423 
3685.967376  	-0.003910 
3687.896192  	-0.005210 
3689.825008  	-0.004210 
3691.753824  	-0.002683 
3693.682640  	-0.002078 
3695.611456  	-0.002311 
3697.540272  	-0.002167 
3699.469088  	-0.002698 
3701.397904  	-0.002162 
3703.326720  	-0.000975 
3705.255536  	-0.001279 
3707.184352  	-0.002298 
3709.113168  	-0.003272 
3711.041984  	-0.002754 
3712.970800  	-0.000435 
3714.899616  	0.000012 
3716.828432  	-0.000822 
3718.757248  	-0.001309 
3720.686064  	-0.001792 
3722.614880  	-0.001285 
3724.543696  	-0.000833 
3726.472512  	-0.000566 
3728.401328  	-0.001223 
3730.330144  	-0.003356 
3732.258960  	-0.003910 
3734.187776  	-0.002492 
3736.116592  	-0.000017 
3738.045408  	-0.000151 
3739.974224  	-0.001365 
3741.903040  	-0.003011 
3743.831856  	-0.003212 
3745.760672  	-0.000330 
3747.689488  	-0.002804 
3749.618304  	-0.004030 
3751.547120  	-0.002020 
3753.475936  	0.000105 
3755.404752  	-0.000821 
3757.333568  	-0.001703 
3759.262384  	-0.001225 
3761.191200  	-0.000156 
3763.120016  	-0.000831 
3765.048832  	-0.001221 
3766.977648  	-0.001092 
3768.906464  	-0.001581 
3770.835280  	-0.000310 
3772.764096  	0.000187 
3774.692912  	-0.000273 
3776.621728  	-0.001047 
3778.550544  	-0.001323 
3780.479360  	-0.000466 
3782.408176  	-0.000782 
3784.336992  	-0.000969 
3786.265808  	-0.000480 
3788.194624  	-0.000330 
3790.123440  	-0.000332 
3792.052256  	-0.000574 
3793.981072  	-0.001489 
3795.909888  	-0.001859 
3797.838704  	-0.001570 
3799.767520  	-0.003196 
3801.696336  	-0.002176 
3803.625152  	-0.001037 
3805.553968  	-0.002493 
3807.482784  	-0.001014 
3809.411600  	-0.000025 
3811.340416  	-0.000570 
3813.269232  	-0.001953 
3815.198048  	-0.003048 
3817.126864  	-0.001715 
3819.055680  	-0.003341 
3820.984496  	-0.002843 
3822.913312  	-0.000055 
3824.842128  	-0.001135 
3826.770944  	-0.001262 
3828.699760  	-0.001103 
3830.628576  	-0.001952 
3832.557392  	-0.001877 
3834.486208  	-0.002397 
3836.415024  	-0.003315 
3838.343840  	-0.002480 
3840.272656  	-0.001409 
3842.201472  	-0.001265 
3844.130288  	-0.000810 
3846.059104  	-0.000449 
3847.987920  	-0.001282 
3849.916736  	-0.002826 
3851.845552  	-0.004855 
3853.774368  	-0.001952 
3855.703184  	0.000442 
3857.632000  	-0.000443 
3859.560816  	-0.001358 
3861.489632  	-0.001957 
3863.418448  	-0.001721 
3865.347264  	-0.000574 
3867.276080  	-0.001448 
3869.204896  	-0.002051 
3871.133712  	0.000132 
3873.062528  	-0.000678 
3874.991344  	-0.000228 
3876.920160  	-0.000769 
3878.848976  	-0.001767 
3880.777792  	-0.000494 
3882.706608  	-0.000421 
3884.635424  	-0.001440 
3886.564240  	0.000150 
3888.493056  	-0.000766 
3890.421872  	-0.001572 
3892.350688  	-0.000231 
3894.279504  	-0.000221 
3896.208320  	-0.001002 
3898.137136  	-0.001364 
3900.065952  	-0.000895 
3901.994768  	-0.000685 
3903.923584  	-0.000018 
3905.852400  	0.000670 
3907.781216  	0.000042 
3909.710032  	-0.000569 
3911.638848  	-0.000587 
3913.567664  	-0.000679 
3915.496480  	-0.000878 
3917.425296  	0.000025 
3919.354112  	0.000253 
3921.282928  	-0.000035 
3923.211744  	-0.000356 
3925.140560  	0.000019 
3927.069376  	-0.000234 
3928.998192  	-0.000609 
3930.927008  	-0.000109 
3932.855824  	0.000772 
3934.784640  	0.000385 
3936.713456  	-0.000204 
3938.642272  	-0.000354 
3940.571088  	-0.000698 
3942.499904  	0.000157 
3944.428720  	0.000529 
3946.357536  	-0.000162 
3948.286352  	0.000047 
3950.215168  	-0.000029 
3952.143984  	-0.000322 
3954.072800  	-0.000403 
3956.001616  	-0.000523 
3957.930432  	-0.000420 
3959.859248  	-0.000208 
3961.788064  	0.000052 
3963.716880  	0.000073 
3965.645696  	-0.000267 
3967.574512  	-0.000124 
3969.503328  	0.000012 
3971.432144  	-0.000236 
3973.360960  	-0.000386 
3975.289776  	-0.000158 
3977.218592  	0.000077 
3979.147408  	0.000128 
3981.076224  	-0.000082 
3983.005040  	-0.000240 
3984.933856  	-0.000308 
3986.862672  	-0.000291 
3988.791488  	-0.000345 
3990.720304  	-0.000249 
3992.649120  	-0.000203 
3994.577936  	-0.000241 
3996.506752  	-0.000280 
3998.435568  	-0.000288 
4000.364384  	-0.000238 