##TITLE=No Description
##DATA TYPE=INFRARED SPECTRUM
##XUNITS=1/CM
##YUNITS=Abs
399.264912  	0.548822 
401.193728  	0.562093 
403.122544  	0.564593 
405.051360  	0.550700 
406.980176  	0.546697 
408.908992  	0.534676 
410.837808  	0.525974 
412.766624  	0.528825 
414.695440  	0.545196 
416.624256  	0.546796 
418.553072  	0.531498 
420.481888  	0.508734 
422.410704  	0.509923 
424.339520  	0.507497 
426.268336  	0.513917 
428.197152  	0.506572 
430.125968  	0.504631 
432.054784  	0.500902 
433.983600  	0.496334 
435.912416  	0.489489 
437.841232  	0.489562 
439.770048  	0.489568 
441.698864  	0.490468 
443.627680  	0.488378 
445.556496  	0.487697 
447.485312  	0.482503 
449.414128  	0.476938 
451.342944  	0.472381 
453.271760  	0.475084 
455.200576  	0.473190 
457.129392  	0.471493 
459.058208  	0.469594 
460.987024  	0.474702 
462.915840  	0.475484 
464.844656  	0.475652 
466.773472  	0.476806 
468.702288  	0.478944 
470.631104  	0.475446 
472.559920  	0.474983 
474.488736  	0.468302 
476.417552  	0.465419 
478.346368  	0.464816 
480.275184  	0.468056 
482.204000  	0.471726 
484.132816  	0.472497 
486.061632  	0.464853 
487.990448  	0.460349 
489.919264  	0.459266 
491.848080  	0.460973 
493.776896  	0.460028 
495.705712  	0.462431 
497.634528  	0.460693 
499.563344  	0.459809 
501.492160  	0.457959 
503.420976  	0.457191 
505.349792  	0.454653 
507.278608  	0.453770 
509.207424  	0.454212 
511.136240  	0.457204 
513.065056  	0.457747 
514.993872  	0.456823 
516.922688  	0.452456 
518.851504  	0.453435 
520.780320  	0.455178 
522.709136  	0.455726 
524.637952  	0.452514 
526.566768  	0.450957 
528.495584  	0.448641 
530.424400  	0.446223 
532.353216  	0.442113 
534.282032  	0.439438 
536.210848  	0.436574 
538.139664  	0.434660 
540.068480  	0.430383 
541.997296  	0.426463 
543.926112  	0.422438 
545.854928  	0.419583 
547.783744  	0.416079 
549.712560  	0.411592 
551.641376  	0.407364 
553.570192  	0.407148 
555.499008  	0.405415 
557.427824  	0.403309 
559.356640  	0.398695 
561.285456  	0.395737 
563.214272  	0.393372 
565.143088  	0.390891 
567.071904  	0.387250 
569.000720  	0.383802 
570.929536  	0.379673 
572.858352  	0.376848 
574.787168  	0.375240 
576.715984  	0.372928 
578.644800  	0.368606 
580.573616  	0.365629 
582.502432  	0.362023 
584.431248  	0.359609 
586.360064  	0.357564 
588.288880  	0.355749 
590.217696  	0.353124 
592.146512  	0.351581 
594.075328  	0.349717 
596.004144  	0.347874 
597.932960  	0.346524 
599.861776  	0.346282 
601.790592  	0.344830 
603.719408  	0.342800 
605.648224  	0.340608 
607.577040  	0.340352 
609.505856  	0.340173 
611.434672  	0.339345 
613.363488  	0.337133 
615.292304  	0.335927 
617.221120  	0.333699 
619.149936  	0.331158 
621.078752  	0.328525 
623.007568  	0.326635 
624.936384  	0.325107 
626.865200  	0.324321 
628.794016  	0.322673 
630.722832  	0.320786 
632.651648  	0.319566 
634.580464  	0.318799 
636.509280  	0.318634 
638.438096  	0.318569 
640.366912  	0.317545 
642.295728  	0.315496 
644.224544  	0.313476 
646.153360  	0.311144 
648.082176  	0.307859 
650.010992  	0.304850 
651.939808  	0.301360 
653.868624  	0.298845 
655.797440  	0.295447 
657.726256  	0.292248 
659.655072  	0.289001 
661.583888  	0.285681 
663.512704  	0.282694 
665.441520  	0.279924 
667.370336  	0.275030 
669.299152  	0.271989 
671.227968  	0.271323 
673.156784  	0.269046 
675.085600  	0.266806 
677.014416  	0.264993 
678.943232  	0.263341 
680.872048  	0.262098 
682.800864  	0.260992 
684.729680  	0.259789 
686.658496  	0.257802 
688.587312  	0.255873 
690.516128  	0.253882 
692.444944  	0.252565 
694.373760  	0.251523 
696.302576  	0.250334 
698.231392  	0.247724 
700.160208  	0.245188 
702.089024  	0.242670 
704.017840  	0.241179 
705.946656  	0.239048 
707.875472  	0.236483 
709.804288  	0.234387 
711.733104  	0.232918 
713.661920  	0.231730 
715.590736  	0.230913 
717.519552  	0.229960 
719.448368  	0.229895 
721.377184  	0.230909 
723.306000  	0.231318 
725.234816  	0.230688 
727.163632  	0.229180 
729.092448  	0.226840 
731.021264  	0.224924 
732.950080  	0.222477 
734.878896  	0.219947 
736.807712  	0.217679 
738.736528  	0.216203 
740.665344  	0.214753 
742.594160  	0.213303 
744.522976  	0.211769 
746.451792  	0.210483 
748.380608  	0.209144 
750.309424  	0.208199 
752.238240  	0.207797 
754.167056  	0.207404 
756.095872  	0.206301 
758.024688  	0.204924 
759.953504  	0.203982 
761.882320  	0.203768 
763.811136  	0.203596 
765.739952  	0.202907 
767.668768  	0.201631 
769.597584  	0.200579 
771.526400  	0.200294 
773.455216  	0.201250 
775.384032  	0.202941 
777.312848  	0.205340 
779.241664  	0.207812 
781.170480  	0.208092 
783.099296  	0.205684 
785.028112  	0.201563 
786.956928  	0.196574 
788.885744  	0.192260 
790.814560  	0.188989 
792.743376  	0.186954 
794.672192  	0.185200 
796.601008  	0.184318 
798.529824  	0.182809 
800.458640  	0.179976 
802.387456  	0.177352 
804.316272  	0.176111 
806.245088  	0.175319 
808.173904  	0.174383 
810.102720  	0.173837 
812.031536  	0.173773 
813.960352  	0.173253 
815.889168  	0.172813 
817.817984  	0.172504 
819.746800  	0.172046 
821.675616  	0.171277 
823.604432  	0.170605 
825.533248  	0.169845 
827.462064  	0.168806 
829.390880  	0.167939 
831.319696  	0.166927 
833.248512  	0.165458 
835.177328  	0.163903 
837.106144  	0.161837 
839.034960  	0.159291 
840.963776  	0.156883 
842.892592  	0.154537 
844.821408  	0.152052 
846.750224  	0.149857 
848.679040  	0.147791 
850.607856  	0.145800 
852.536672  	0.144341 
854.465488  	0.142756 
856.394304  	0.140991 
858.323120  	0.139414 
860.251936  	0.137854 
862.180752  	0.135922 
864.109568  	0.134229 
866.038384  	0.132943 
867.967200  	0.131643 
869.896016  	0.130311 
871.824832  	0.129067 
873.753648  	0.128266 
875.682464  	0.128162 
877.611280  	0.128181 
879.540096  	0.128108 
881.468912  	0.128530 
883.397728  	0.128801 
885.326544  	0.128943 
887.255360  	0.128751 
889.184176  	0.128229 
891.112992  	0.127205 
893.041808  	0.125860 
894.970624  	0.124200 
896.899440  	0.121922 
898.828256  	0.119213 
900.757072  	0.116629 
902.685888  	0.114304 
904.614704  	0.112671 
906.543520  	0.112103 
908.472336  	0.112752 
910.401152  	0.114142 
912.329968  	0.116225 
914.258784  	0.118417 
916.187600  	0.120487 
918.116416  	0.121815 
920.045232  	0.122355 
921.974048  	0.122192 
923.902864  	0.121511 
925.831680  	0.120618 
927.760496  	0.119734 
929.689312  	0.119019 
931.618128  	0.118903 
933.546944  	0.119025 
935.475760  	0.119014 
937.404576  	0.119118 
939.333392  	0.119722 
941.262208  	0.120654 
943.191024  	0.122237 
945.119840  	0.124852 
947.048656  	0.128122 
948.977472  	0.132189 
950.906288  	0.137069 
952.835104  	0.142285 
954.763920  	0.147769 
956.692736  	0.152911 
958.621552  	0.157317 
960.550368  	0.160441 
962.479184  	0.161961 
964.408000  	0.161409 
966.336816  	0.158742 
968.265632  	0.153960 
970.194448  	0.148028 
972.123264  	0.141099 
974.052080  	0.133595 
975.980896  	0.126140 
977.909712  	0.119100 
979.838528  	0.113131 
981.767344  	0.108189 
983.696160  	0.104714 
985.624976  	0.102925 
987.553792  	0.102820 
989.482608  	0.104442 
991.411424  	0.107426 
993.340240  	0.111471 
995.269056  	0.116702 
997.197872  	0.122371 
999.126688  	0.127840 
1001.055504  	0.133263 
1002.984320  	0.138482 
1004.913136  	0.143483 
1006.841952  	0.147668 
1008.770768  	0.151180 
1010.699584  	0.153780 
1012.628400  	0.155464 
1014.557216  	0.156354 
1016.486032  	0.156878 
1018.414848  	0.157304 
1020.343664  	0.157793 
1022.272480  	0.157966 
1024.201296  	0.157675 
1026.130112  	0.156402 
1028.058928  	0.156189 
1029.987744  	0.157693 
1031.916560  	0.159161 
1033.845376  	0.160454 
1035.774192  	0.161575 
1037.703008  	0.163375 
1039.631824  	0.167172 
1041.560640  	0.172166 
1043.489456  	0.178633 
1045.418272  	0.186731 
1047.347088  	0.196875 
1049.275904  	0.207589 
1051.204720  	0.218564 
1053.133536  	0.228073 
1055.062352  	0.235595 
1056.991168  	0.240407 
1058.919984  	0.243891 
1060.848800  	0.245246 
1062.777616  	0.244265 
1064.706432  	0.240587 
1066.635248  	0.236809 
1068.564064  	0.233952 
1070.492880  	0.230067 
1072.421696  	0.224638 
1074.350512  	0.219552 
1076.279328  	0.215429 
1078.208144  	0.212602 
1080.136960  	0.210447 
1082.065776  	0.208711 
1083.994592  	0.206651 
1085.923408  	0.204582 
1087.852224  	0.201964 
1089.781040  	0.199185 
1091.709856  	0.195276 
1093.638672  	0.189801 
1095.567488  	0.182936 
1097.496304  	0.175920 
1099.425120  	0.168126 
1101.353936  	0.160088 
1103.282752  	0.152269 
1105.211568  	0.144525 
1107.140384  	0.136949 
1109.069200  	0.129453 
1110.998016  	0.122496 
1112.926832  	0.116110 
1114.855648  	0.110015 
1116.784464  	0.104122 
1118.713280  	0.098879 
1120.642096  	0.093937 
1122.570912  	0.088867 
1124.499728  	0.084202 
1126.428544  	0.079917 
1128.357360  	0.075795 
1130.286176  	0.071880 
1132.214992  	0.068502 
1134.143808  	0.065648 
1136.072624  	0.063169 
1138.001440  	0.060794 
1139.930256  	0.058340 
1141.859072  	0.056335 
1143.787888  	0.054350 
1145.716704  	0.052681 
1147.645520  	0.051669 
1149.574336  	0.050994 
1151.503152  	0.050283 
1153.431968  	0.049841 
1155.360784  	0.049684 
1157.289600  	0.050075 
1159.218416  	0.050772 
1161.147232  	0.051629 
1163.076048  	0.052414 
1165.004864  	0.053612 
1166.933680  	0.054607 
1168.862496  	0.055902 
1170.791312  	0.057669 
1172.720128  	0.059350 
1174.648944  	0.061065 
1176.577760  	0.063083 
1178.506576  	0.065010 
1180.435392  	0.066922 
1182.364208  	0.068891 
1184.293024  	0.071126 
1186.221840  	0.073492 
1188.150656  	0.076065 
1190.079472  	0.079006 
1192.008288  	0.082333 
1193.937104  	0.086291 
1195.865920  	0.090878 
1197.794736  	0.095344 
1199.723552  	0.100172 
1201.652368  	0.105263 
1203.581184  	0.110502 
1205.510000  	0.115578 
1207.438816  	0.120777 
1209.367632  	0.125694 
1211.296448  	0.130025 
1213.225264  	0.133996 
1215.154080  	0.137283 
1217.082896  	0.139993 
1219.011712  	0.141970 
1220.940528  	0.143799 
1222.869344  	0.145053 
1224.798160  	0.145712 
1226.726976  	0.145979 
1228.655792  	0.145847 
1230.584608  	0.145262 
1232.513424  	0.144306 
1234.442240  	0.142568 
1236.371056  	0.140264 
1238.299872  	0.137268 
1240.228688  	0.133097 
1242.157504  	0.128638 
1244.086320  	0.124287 
1246.015136  	0.119022 
1247.943952  	0.113571 
1249.872768  	0.108099 
1251.801584  	0.102983 
1253.730400  	0.098036 
1255.659216  	0.093411 
1257.588032  	0.088863 
1259.516848  	0.084518 
1261.445664  	0.080683 
1263.374480  	0.077320 
1265.303296  	0.074354 
1267.232112  	0.071964 
1269.160928  	0.070292 
1271.089744  	0.069217 
1273.018560  	0.068865 
1274.947376  	0.069035 
1276.876192  	0.069110 
1278.805008  	0.068713 
1280.733824  	0.067560 
1282.662640  	0.065368 
1284.591456  	0.062371 
1286.520272  	0.059356 
1288.449088  	0.056909 
1290.377904  	0.054883 
1292.306720  	0.053292 
1294.235536  	0.051480 
1296.164352  	0.049067 
1298.093168  	0.046211 
1300.021984  	0.043386 
1301.950800  	0.040820 
1303.879616  	0.038873 
1305.808432  	0.037369 
1307.737248  	0.036264 
1309.666064  	0.035221 
1311.594880  	0.034843 
1313.523696  	0.034779 
1315.452512  	0.034819 
1317.381328  	0.035173 
1319.310144  	0.035750 
1321.238960  	0.036283 
1323.167776  	0.036773 
1325.096592  	0.037112 
1327.025408  	0.037214 
1328.954224  	0.036895 
1330.883040  	0.036239 
1332.811856  	0.035220 
1334.740672  	0.034486 
1336.669488  	0.034088 
1338.598304  	0.033992 
1340.527120  	0.033397 
1342.455936  	0.032457 
1344.384752  	0.032256 
1346.313568  	0.032729 
1348.242384  	0.033678 
1350.171200  	0.035036 
1352.100016  	0.036518 
1354.028832  	0.038089 
1355.957648  	0.039644 
1357.886464  	0.041168 
1359.815280  	0.042461 
1361.744096  	0.043926 
1363.672912  	0.045134 
1365.601728  	0.045413 
1367.530544  	0.045568 
1369.459360  	0.045579 
1371.388176  	0.044927 
1373.316992  	0.043926 
1375.245808  	0.042517 
1377.174624  	0.041108 
1379.103440  	0.039457 
1381.032256  	0.037881 
1382.961072  	0.036725 
1384.889888  	0.036136 
1386.818704  	0.035825 
1388.747520  	0.035086 
1390.676336  	0.033628 
1392.605152  	0.031710 
1394.533968  	0.030959 
1396.462784  	0.032418 
1398.391600  	0.032934 
1400.320416  	0.033116 
1402.249232  	0.033249 
1404.178048  	0.034009 
1406.106864  	0.035109 
1408.035680  	0.036465 
1409.964496  	0.038040 
1411.893312  	0.039940 
1413.822128  	0.041732 
1415.750944  	0.043496 
1417.679760  	0.044317 
1419.608576  	0.044374 
1421.537392  	0.044198 
1423.466208  	0.043827 
1425.395024  	0.042909 
1427.323840  	0.041592 
1429.252656  	0.040156 
1431.181472  	0.039289 
1433.110288  	0.038950 
1435.039104  	0.038812 
1436.967920  	0.038983 
1438.896736  	0.039368 
1440.825552  	0.039663 
1442.754368  	0.039973 
1444.683184  	0.039872 
1446.612000  	0.039772 
1448.540816  	0.039724 
1450.469632  	0.039880 
1452.398448  	0.040017 
1454.327264  	0.039959 
1456.256080  	0.039504 
1458.184896  	0.040072 
1460.113712  	0.040970 
1462.042528  	0.041340 
1463.971344  	0.041337 
1465.900160  	0.042874 
1467.828976  	0.044658 
1469.757792  	0.046160 
1471.686608  	0.048009 
1473.615424  	0.051845 
1475.544240  	0.054608 
1477.473056  	0.056415 
1479.401872  	0.056898 
1481.330688  	0.057094 
1483.259504  	0.056826 
1485.188320  	0.055952 
1487.117136  	0.054288 
1489.045952  	0.052648 
1490.974768  	0.050361 
1492.903584  	0.047920 
1494.832400  	0.045179 
1496.761216  	0.042387 
1498.690032  	0.040294 
1500.618848  	0.039223 
1502.547664  	0.037876 
1504.476480  	0.035517 
1506.405296  	0.033696 
1508.334112  	0.035553 
1510.262928  	0.035460 
1512.191744  	0.034406 
1514.120560  	0.033578 
1516.049376  	0.033223 
1517.978192  	0.033168 
1519.907008  	0.033472 
1521.835824  	0.034766 
1523.764640  	0.037279 
1525.693456  	0.039550 
1527.622272  	0.041600 
1529.551088  	0.042887 
1531.479904  	0.043286 
1533.408720  	0.042979 
1535.337536  	0.042930 
1537.266352  	0.040951 
1539.195168  	0.036959 
1541.123984  	0.035407 
1543.052800  	0.036643 
1544.981616  	0.036830 
1546.910432  	0.036106 
1548.839248  	0.035533 
1550.768064  	0.035655 
1552.696880  	0.035086 
1554.625696  	0.034960 
1556.554512  	0.033802 
1558.483328  	0.032374 
1560.412144  	0.036957 
1562.340960  	0.039798 
1564.269776  	0.041187 
1566.198592  	0.043790 
1568.127408  	0.045537 
1570.056224  	0.048937 
1571.985040  	0.052518 
1573.913856  	0.053616 
1575.842672  	0.053706 
1577.771488  	0.055980 
1579.700304  	0.056674 
1581.629120  	0.056680 
1583.557936  	0.056920 
1585.486752  	0.058200 
1587.415568  	0.060178 
1589.344384  	0.063155 
1591.273200  	0.066549 
1593.202016  	0.070391 
1595.130832  	0.074159 
1597.059648  	0.077907 
1598.988464  	0.080698 
1600.917280  	0.083010 
1602.846096  	0.084179 
1604.774912  	0.084883 
1606.703728  	0.084638 
1608.632544  	0.084311 
1610.561360  	0.083836 
1612.490176  	0.083808 
1614.418992  	0.083133 
1616.347808  	0.083764 
1618.276624  	0.087182 
1620.205440  	0.090448 
1622.134256  	0.093014 
1624.063072  	0.098402 
1625.991888  	0.103340 
1627.920704  	0.108613 
1629.849520  	0.114787 
1631.778336  	0.119795 
1633.707152  	0.122581 
1635.635968  	0.127349 
1637.564784  	0.134210 
1639.493600  	0.138018 
1641.422416  	0.140726 
1643.351232  	0.142157 
1645.280048  	0.141776 
1647.208864  	0.143112 
1649.137680  	0.144426 
1651.066496  	0.142268 
1652.995312  	0.139737 
1654.924128  	0.143403 
1656.852944  	0.142942 
1658.781760  	0.141939 
1660.710576  	0.140516 
1662.639392  	0.139274 
1664.568208  	0.138961 
1666.497024  	0.137880 
1668.425840  	0.136002 
1670.354656  	0.135603 
1672.283472  	0.135683 
1674.212288  	0.135084 
1676.141104  	0.136148 
1678.069920  	0.137219 
1679.998736  	0.137746 
1681.927552  	0.137041 
1683.856368  	0.135809 
1685.785184  	0.138421 
1687.714000  	0.138394 
1689.642816  	0.137467 
1691.571632  	0.135901 
1693.500448  	0.133191 
1695.429264  	0.129255 
1697.358080  	0.126766 
1699.286896  	0.123107 
1701.215712  	0.120232 
1703.144528  	0.117314 
1705.073344  	0.112929 
1707.002160  	0.108922 
1708.930976  	0.105237 
1710.859792  	0.100840 
1712.788608  	0.095947 
1714.717424  	0.090640 
1716.646240  	0.084629 
1718.575056  	0.079350 
1720.503872  	0.075117 
1722.432688  	0.070775 
1724.361504  	0.065759 
1726.290320  	0.061121 
1728.219136  	0.056478 
1730.147952  	0.052075 
1732.076768  	0.047529 
1734.005584  	0.042382 
1735.934400  	0.038173 
1737.863216  	0.035146 
1739.792032  	0.030806 
1741.720848  	0.028123 
1743.649664  	0.025742 
1745.578480  	0.023046 
1747.507296  	0.020283 
1749.436112  	0.018727 
1751.364928  	0.017627 
1753.293744  	0.016584 
1755.222560  	0.015192 
1757.151376  	0.014474 
1759.080192  	0.013561 
1761.009008  	0.012940 
1762.937824  	0.012401 
1764.866640  	0.012171 
1766.795456  	0.011703 
1768.724272  	0.011427 
1770.653088  	0.009744 
1772.581904  	0.009132 
1774.510720  	0.010066 
1776.439536  	0.010555 
1778.368352  	0.010295 
1780.297168  	0.010285 
1782.225984  	0.009996 
1784.154800  	0.009837 
1786.083616  	0.009704 
1788.012432  	0.009522 
1789.941248  	0.009015 
1791.870064  	0.008699 
1793.798880  	0.008662 
1795.727696  	0.009205 
1797.656512  	0.008927 
1799.585328  	0.008645 
1801.514144  	0.008675 
1803.442960  	0.008517 
1805.371776  	0.008128 
1807.300592  	0.008056 
1809.229408  	0.007570 
1811.158224  	0.007733 
1813.087040  	0.007689 
1815.015856  	0.007515 
1816.944672  	0.007550 
1818.873488  	0.007854 
1820.802304  	0.007801 
1822.731120  	0.007742 
1824.659936  	0.007464 
1826.588752  	0.007597 
1828.517568  	0.007123 
1830.446384  	0.007412 
1832.375200  	0.007813 
1834.304016  	0.007718 
1836.232832  	0.007334 
1838.161648  	0.007680 
1840.090464  	0.007632 
1842.019280  	0.007401 
1843.948096  	0.006980 
1845.876912  	0.007459 
1847.805728  	0.007727 
1849.734544  	0.007807 
1851.663360  	0.007489 
1853.592176  	0.007525 
1855.520992  	0.007480 
1857.449808  	0.007910 
1859.378624  	0.007681 
1861.307440  	0.007455 
1863.236256  	0.007239 
1865.165072  	0.007309 
1867.093888  	0.007119 
1869.022704  	0.007482 
1870.951520  	0.007641 
1872.880336  	0.007603 
1874.809152  	0.007233 
1876.737968  	0.007297 
1878.666784  	0.007012 
1880.595600  	0.007275 
1882.524416  	0.007454 
1884.453232  	0.007394 
1886.382048  	0.006917 
1888.310864  	0.007023 
1890.239680  	0.007369 
1892.168496  	0.007536 
1894.097312  	0.007201 
1896.026128  	0.007324 
1897.954944  	0.007061 
1899.883760  	0.007012 
1901.812576  	0.006874 
1903.741392  	0.007023 
1905.670208  	0.006902 
1907.599024  	0.007055 
1909.527840  	0.006771 
1911.456656  	0.007116 
1913.385472  	0.007242 
1915.314288  	0.007403 
1917.243104  	0.007121 
1919.171920  	0.006925 
1921.100736  	0.007441 
1923.029552  	0.008372 
1924.958368  	0.007407 
1926.887184  	0.007219 
1928.816000  	0.007047 
1930.744816  	0.007038 
1932.673632  	0.006680 
1934.602448  	0.006892 
1936.531264  	0.007332 
1938.460080  	0.007470 
1940.388896  	0.006895 
1942.317712  	0.007046 
1944.246528  	0.006989 
1946.175344  	0.007494 
1948.104160  	0.007406 
1950.032976  	0.007966 
1951.961792  	0.008301 
1953.890608  	0.008003 
1955.819424  	0.006706 
1957.748240  	0.006726 
1959.677056  	0.007428 
1961.605872  	0.007712 
1963.534688  	0.007136 
1965.463504  	0.007912 
1967.392320  	0.007305 
1969.321136  	0.006953 
1971.249952  	0.007641 
1973.178768  	0.009029 
1975.107584  	0.008318 
1977.036400  	0.007641 
1978.965216  	0.008485 
1980.894032  	0.008562 
1982.822848  	0.007801 
1984.751664  	0.008060 
1986.680480  	0.007908 
1988.609296  	0.008190 
1990.538112  	0.007956 
1992.466928  	0.008482 
1994.395744  	0.008372 
1996.324560  	0.008195 
1998.253376  	0.007343 
2000.182192  	0.007213 
2002.111008  	0.007551 
2004.039824  	0.007912 
2005.968640  	0.007475 
2007.897456  	0.008361 
2009.826272  	0.008200 
2011.755088  	0.006738 
2013.683904  	0.006364 
2015.612720  	0.007700 
2017.541536  	0.007996 
2019.470352  	0.008066 
2021.399168  	0.008033 
2023.327984  	0.008454 
2025.256800  	0.007284 
2027.185616  	0.007128 
2029.114432  	0.006463 
2031.043248  	0.008425 
2032.972064  	0.009072 
2034.900880  	0.008489 
2036.829696  	0.008189 
2038.758512  	0.007909 
2040.687328  	0.007753 
2042.616144  	0.007628 
2044.544960  	0.007423 
2046.473776  	0.007625 
2048.402592  	0.007832 
2050.331408  	0.008792 
2052.260224  	0.007915 
2054.189040  	0.007734 
2056.117856  	0.006934 
2058.046672  	0.006800 
2059.975488  	0.006955 
2061.904304  	0.007185 
2063.833120  	0.008081 
2065.761936  	0.008393 
2067.690752  	0.007701 
2069.619568  	0.007239 
2071.548384  	0.006239 
2073.477200  	0.006475 
2075.406016  	0.007577 
2077.334832  	0.007869 
2079.263648  	0.007080 
2081.192464  	0.007290 
2083.121280  	0.007935 
2085.050096  	0.008021 
2086.978912  	0.007522 
2088.907728  	0.007359 
2090.836544  	0.006916 
2092.765360  	0.006600 
2094.694176  	0.006431 
2096.622992  	0.006596 
2098.551808  	0.006677 
2100.480624  	0.006871 
2102.409440  	0.006761 
2104.338256  	0.007034 
2106.267072  	0.007243 
2108.195888  	0.007295 
2110.124704  	0.007591 
2112.053520  	0.008092 
2113.982336  	0.007564 
2115.911152  	0.007475 
2117.839968  	0.007269 
2119.768784  	0.006820 
2121.697600  	0.006520 
2123.626416  	0.006155 
2125.555232  	0.006001 
2127.484048  	0.006621 
2129.412864  	0.006528 
2131.341680  	0.005516 
2133.270496  	0.005405 
2135.199312  	0.006640 
2137.128128  	0.007047 
2139.056944  	0.006960 
2140.985760  	0.006241 
2142.914576  	0.006465 
2144.843392  	0.006157 
2146.772208  	0.006741 
2148.701024  	0.007449 
2150.629840  	0.007516 
2152.558656  	0.006564 
2154.487472  	0.005695 
2156.416288  	0.005018 
2158.345104  	0.007046 
2160.273920  	0.009076 
2162.202736  	0.008977 
2164.131552  	0.008429 
2166.060368  	0.009576 
2167.989184  	0.008838 
2169.918000  	0.007881 
2171.846816  	0.007836 
2173.775632  	0.008462 
2175.704448  	0.008939 
2177.633264  	0.008806 
2179.562080  	0.007813 
2181.490896  	0.007603 
2183.419712  	0.007937 
2185.348528  	0.008352 
2187.277344  	0.006902 
2189.206160  	0.006740 
2191.134976  	0.007912 
2193.063792  	0.009374 
2194.992608  	0.009686 
2196.921424  	0.008506 
2198.850240  	0.008280 
2200.779056  	0.007822 
2202.707872  	0.007243 
2204.636688  	0.007819 
2206.565504  	0.007621 
2208.494320  	0.007890 
2210.423136  	0.006836 
2212.351952  	0.006443 
2214.280768  	0.007180 
2216.209584  	0.007528 
2218.138400  	0.007590 
2220.067216  	0.007704 
2221.996032  	0.007699 
2223.924848  	0.007429 
2225.853664  	0.007594 
2227.782480  	0.008447 
2229.711296  	0.008671 
2231.640112  	0.008426 
2233.568928  	0.007451 
2235.497744  	0.007381 
2237.426560  	0.007371 
2239.355376  	0.007413 
2241.284192  	0.007230 
2243.213008  	0.007105 
2245.141824  	0.006951 
2247.070640  	0.006532 
2248.999456  	0.006579 
2250.928272  	0.007000 
2252.857088  	0.006824 
2254.785904  	0.006987 
2256.714720  	0.007549 
2258.643536  	0.008011 
2260.572352  	0.007713 
2262.501168  	0.007587 
2264.429984  	0.007558 
2266.358800  	0.007806 
2268.287616  	0.007705 
2270.216432  	0.007686 
2272.145248  	0.007411 
2274.074064  	0.007504 
2276.002880  	0.007603 
2277.931696  	0.008158 
2279.860512  	0.008638 
2281.789328  	0.008921 
2283.718144  	0.008933 
2285.646960  	0.009081 
2287.575776  	0.008839 
2289.504592  	0.008178 
2291.433408  	0.007998 
2293.362224  	0.008193 
2295.291040  	0.008247 
2297.219856  	0.008435 
2299.148672  	0.008345 
2301.077488  	0.008468 
2303.006304  	0.008676 
2304.935120  	0.008519 
2306.863936  	0.008126 
2308.792752  	0.008098 
2310.721568  	0.008338 
2312.650384  	0.008063 
2314.579200  	0.007271 
2316.508016  	0.007130 
2318.436832  	0.006800 
2320.365648  	0.006070 
2322.294464  	0.005352 
2324.223280  	0.004407 
2326.152096  	0.002689 
2328.080912  	0.001322 
2330.009728  	0.000820 
2331.938544  	0.000277 
2333.867360  	-0.001090 
2335.796176  	-0.002063 
2337.724992  	-0.002578 
2339.653808  	-0.002584 
2341.582624  	-0.002190 
2343.511440  	-0.000853 
2345.440256  	0.000823 
2347.369072  	0.003123 
2349.297888  	0.003750 
2351.226704  	0.001915 
2353.155520  	-0.000496 
2355.084336  	-0.002803 
2357.013152  	-0.004977 
2358.941968  	-0.005921 
2360.870784  	-0.006672 
2362.799600  	-0.006214 
2364.728416  	-0.004852 
2366.657232  	-0.003475 
2368.586048  	-0.002180 
2370.514864  	0.000209 
2372.443680  	0.002574 
2374.372496  	0.004660 
2376.301312  	0.006364 
2378.230128  	0.007552 
2380.158944  	0.008198 
2382.087760  	0.008511 
2384.016576  	0.008722 
2385.945392  	0.008703 
2387.874208  	0.008366 
2389.803024  	0.008183 
2391.731840  	0.008110 
2393.660656  	0.008131 
2395.589472  	0.008202 
2397.518288  	0.008331 
2399.447104  	0.008320 
2401.375920  	0.008021 
2403.304736  	0.007976 
2405.233552  	0.008324 
2407.162368  	0.008532 
2409.091184  	0.008435 
2411.020000  	0.008310 
2412.948816  	0.008365 
2414.877632  	0.008441 
2416.806448  	0.008618 
2418.735264  	0.008743 
2420.664080  	0.008730 
2422.592896  	0.008650 
2424.521712  	0.008599 
2426.450528  	0.008598 
2428.379344  	0.008707 
2430.308160  	0.008942 
2432.236976  	0.008904 
2434.165792  	0.008856 
2436.094608  	0.009332 
2438.023424  	0.009701 
2439.952240  	0.009762 
2441.881056  	0.009778 
2443.809872  	0.009665 
2445.738688  	0.009533 
2447.667504  	0.009626 
2449.596320  	0.009581 
2451.525136  	0.009623 
2453.453952  	0.009719 
2455.382768  	0.009928 
2457.311584  	0.010132 
2459.240400  	0.010073 
2461.169216  	0.009823 
2463.098032  	0.009824 
2465.026848  	0.009876 
2466.955664  	0.009957 
2468.884480  	0.009844 
2470.813296  	0.010005 
2472.742112  	0.010104 
2474.670928  	0.010000 
2476.599744  	0.009952 
2478.528560  	0.010058 
2480.457376  	0.010309 
2482.386192  	0.010340 
2484.315008  	0.010351 
2486.243824  	0.010387 
2488.172640  	0.010099 
2490.101456  	0.010120 
2492.030272  	0.010581 
2493.959088  	0.010626 
2495.887904  	0.010412 
2497.816720  	0.010471 
2499.745536  	0.010495 
2501.674352  	0.010573 
2503.603168  	0.010578 
2505.531984  	0.010810 
2507.460800  	0.010924 
2509.389616  	0.010757 
2511.318432  	0.010594 
2513.247248  	0.010623 
2515.176064  	0.010703 
2517.104880  	0.010957 
2519.033696  	0.010984 
2520.962512  	0.011079 
2522.891328  	0.011334 
2524.820144  	0.011357 
2526.748960  	0.011316 
2528.677776  	0.011566 
2530.606592  	0.011553 
2532.535408  	0.011358 
2534.464224  	0.011439 
2536.393040  	0.011618 
2538.321856  	0.011551 
2540.250672  	0.011549 
2542.179488  	0.011651 
2544.108304  	0.011874 
2546.037120  	0.011793 
2547.965936  	0.011989 
2549.894752  	0.012204 
2551.823568  	0.012311 
2553.752384  	0.012161 
2555.681200  	0.012144 
2557.610016  	0.012346 
2559.538832  	0.012477 
2561.467648  	0.012557 
2563.396464  	0.012699 
2565.325280  	0.012780 
2567.254096  	0.012751 
2569.182912  	0.012571 
2571.111728  	0.012514 
2573.040544  	0.012333 
2574.969360  	0.012246 
2576.898176  	0.012593 
2578.826992  	0.013081 
2580.755808  	0.013117 
2582.684624  	0.012876 
2584.613440  	0.012630 
2586.542256  	0.012910 
2588.471072  	0.013114 
2590.399888  	0.013039 
2592.328704  	0.013160 
2594.257520  	0.013479 
2596.186336  	0.013736 
2598.115152  	0.013786 
2600.043968  	0.013713 
2601.972784  	0.013683 
2603.901600  	0.013809 
2605.830416  	0.013844 
2607.759232  	0.013617 
2609.688048  	0.013733 
2611.616864  	0.013931 
2613.545680  	0.014131 
2615.474496  	0.014182 
2617.403312  	0.014284 
2619.332128  	0.014434 
2621.260944  	0.014549 
2623.189760  	0.014512 
2625.118576  	0.014555 
2627.047392  	0.014683 
2628.976208  	0.014962 
2630.905024  	0.015095 
2632.833840  	0.015270 
2634.762656  	0.015337 
2636.691472  	0.015270 
2638.620288  	0.015311 
2640.549104  	0.015483 
2642.477920  	0.015595 
2644.406736  	0.015565 
2646.335552  	0.015656 
2648.264368  	0.015759 
2650.193184  	0.015841 
2652.122000  	0.016069 
2654.050816  	0.016243 
2655.979632  	0.016154 
2657.908448  	0.016177 
2659.837264  	0.016275 
2661.766080  	0.016225 
2663.694896  	0.016292 
2665.623712  	0.016295 
2667.552528  	0.016227 
2669.481344  	0.016380 
2671.410160  	0.016693 
2673.338976  	0.016795 
2675.267792  	0.016814 
2677.196608  	0.016994 
2679.125424  	0.017212 
2681.054240  	0.017275 
2682.983056  	0.017262 
2684.911872  	0.017292 
2686.840688  	0.017378 
2688.769504  	0.017522 
2690.698320  	0.017580 
2692.627136  	0.017626 
2694.555952  	0.017683 
2696.484768  	0.017673 
2698.413584  	0.017748 
2700.342400  	0.017858 
2702.271216  	0.017994 
2704.200032  	0.018271 
2706.128848  	0.018407 
2708.057664  	0.018345 
2709.986480  	0.018366 
2711.915296  	0.018476 
2713.844112  	0.018572 
2715.772928  	0.018704 
2717.701744  	0.018865 
2719.630560  	0.018876 
2721.559376  	0.018867 
2723.488192  	0.018970 
2725.417008  	0.019206 
2727.345824  	0.019363 
2729.274640  	0.019312 
2731.203456  	0.019281 
2733.132272  	0.019412 
2735.061088  	0.019509 
2736.989904  	0.019574 
2738.918720  	0.019542 
2740.847536  	0.019477 
2742.776352  	0.019594 
2744.705168  	0.019790 
2746.633984  	0.019956 
2748.562800  	0.020148 
2750.491616  	0.020186 
2752.420432  	0.020232 
2754.349248  	0.020313 
2756.278064  	0.020297 
2758.206880  	0.020244 
2760.135696  	0.020394 
2762.064512  	0.020402 
2763.993328  	0.020450 
2765.922144  	0.020526 
2767.850960  	0.020500 
2769.779776  	0.020483 
2771.708592  	0.020549 
2773.637408  	0.020625 
2775.566224  	0.020680 
2777.495040  	0.020658 
2779.423856  	0.020785 
2781.352672  	0.020967 
2783.281488  	0.021045 
2785.210304  	0.021059 
2787.139120  	0.021256 
2789.067936  	0.021397 
2790.996752  	0.021420 
2792.925568  	0.021453 
2794.854384  	0.021547 
2796.783200  	0.021607 
2798.712016  	0.021531 
2800.640832  	0.021565 
2802.569648  	0.021710 
2804.498464  	0.021815 
2806.427280  	0.021849 
2808.356096  	0.022013 
2810.284912  	0.022220 
2812.213728  	0.022181 
2814.142544  	0.022230 
2816.071360  	0.022377 
2818.000176  	0.022324 
2819.928992  	0.022250 
2821.857808  	0.022288 
2823.786624  	0.022324 
2825.715440  	0.022366 
2827.644256  	0.022247 
2829.573072  	0.022189 
2831.501888  	0.022086 
2833.430704  	0.022034 
2835.359520  	0.022077 
2837.288336  	0.021973 
2839.217152  	0.021758 
2841.145968  	0.021598 
2843.074784  	0.021525 
2845.003600  	0.021617 
2846.932416  	0.021771 
2848.861232  	0.021723 
2850.790048  	0.021433 
2852.718864  	0.021083 
2854.647680  	0.020818 
2856.576496  	0.020671 
2858.505312  	0.020515 
2860.434128  	0.020365 
2862.362944  	0.020023 
2864.291760  	0.019544 
2866.220576  	0.019305 
2868.149392  	0.019416 
2870.078208  	0.019563 
2872.007024  	0.019597 
2873.935840  	0.019656 
2875.864656  	0.019842 
2877.793472  	0.020082 
2879.722288  	0.020198 
2881.651104  	0.020045 
2883.579920  	0.019854 
2885.508736  	0.019978 
2887.437552  	0.020161 
2889.366368  	0.020183 
2891.295184  	0.020077 
2893.224000  	0.020037 
2895.152816  	0.020150 
2897.081632  	0.019826 
2899.010448  	0.019037 
2900.939264  	0.018559 
2902.868080  	0.019198 
2904.796896  	0.019928 
2906.725712  	0.020292 
2908.654528  	0.020511 
2910.583344  	0.020729 
2912.512160  	0.021405 
2914.440976  	0.022301 
2916.369792  	0.022788 
2918.298608  	0.023103 
2920.227424  	0.023534 
2922.156240  	0.023955 
2924.085056  	0.024396 
2926.013872  	0.024925 
2927.942688  	0.025408 
2929.871504  	0.025899 
2931.800320  	0.026444 
2933.729136  	0.026798 
2935.657952  	0.026872 
2937.586768  	0.027149 
2939.515584  	0.027395 
2941.444400  	0.027520 
2943.373216  	0.027622 
2945.302032  	0.027713 
2947.230848  	0.027698 
2949.159664  	0.027540 
2951.088480  	0.027262 
2953.017296  	0.026991 
2954.946112  	0.026643 
2956.874928  	0.026144 
2958.803744  	0.025582 
2960.732560  	0.025213 
2962.661376  	0.024938 
2964.590192  	0.024372 
2966.519008  	0.023756 
2968.447824  	0.023208 
2970.376640  	0.022835 
2972.305456  	0.022491 
2974.234272  	0.022386 
2976.163088  	0.022365 
2978.091904  	0.022229 
2980.020720  	0.022133 
2981.949536  	0.022191 
2983.878352  	0.021880 
2985.807168  	0.021421 
2987.735984  	0.021210 
2989.664800  	0.021570 
2991.593616  	0.022861 
2993.522432  	0.023421 
2995.451248  	0.023655 
2997.380064  	0.024121 
2999.308880  	0.024761 
3001.237696  	0.025412 
3003.166512  	0.025967 
3005.095328  	0.026435 
3007.024144  	0.027163 
3008.952960  	0.027835 
3010.881776  	0.028444 
3012.810592  	0.029135 
3014.739408  	0.029730 
3016.668224  	0.030395 
3018.597040  	0.030816 
3020.525856  	0.031002 
3022.454672  	0.031526 
3024.383488  	0.032237 
3026.312304  	0.032784 
3028.241120  	0.033133 
3030.169936  	0.033428 
3032.098752  	0.033933 
3034.027568  	0.034125 
3035.956384  	0.034200 
3037.885200  	0.034653 
3039.814016  	0.035152 
3041.742832  	0.035549 
3043.671648  	0.035820 
3045.600464  	0.035893 
3047.529280  	0.036023 
3049.458096  	0.036210 
3051.386912  	0.036255 
3053.315728  	0.036503 
3055.244544  	0.036927 
3057.173360  	0.037356 
3059.102176  	0.037650 
3061.030992  	0.037822 
3062.959808  	0.038181 
3064.888624  	0.038624 
3066.817440  	0.038875 
3068.746256  	0.039013 
3070.675072  	0.039120 
3072.603888  	0.039367 
3074.532704  	0.039822 
3076.461520  	0.040286 
3078.390336  	0.040425 
3080.319152  	0.040538 
3082.247968  	0.040863 
3084.176784  	0.041280 
3086.105600  	0.041446 
3088.034416  	0.041654 
3089.963232  	0.042087 
3091.892048  	0.042416 
3093.820864  	0.042549 
3095.749680  	0.042754 
3097.678496  	0.042859 
3099.607312  	0.043148 
3101.536128  	0.043336 
3103.464944  	0.043599 
3105.393760  	0.043839 
3107.322576  	0.044145 
3109.251392  	0.044416 
3111.180208  	0.044567 
3113.109024  	0.044615 
3115.037840  	0.044688 
3116.966656  	0.045063 
3118.895472  	0.045391 
3120.824288  	0.045527 
3122.753104  	0.045651 
3124.681920  	0.045743 
3126.610736  	0.045888 
3128.539552  	0.046157 
3130.468368  	0.046248 
3132.397184  	0.046319 
3134.326000  	0.046472 
3136.254816  	0.046584 
3138.183632  	0.046841 
3140.112448  	0.046964 
3142.041264  	0.046946 
3143.970080  	0.047136 
3145.898896  	0.047225 
3147.827712  	0.047377 
3149.756528  	0.047630 
3151.685344  	0.047937 
3153.614160  	0.048235 
3155.542976  	0.048405 
3157.471792  	0.048499 
3159.400608  	0.048902 
3161.329424  	0.049270 
3163.258240  	0.049506 
3165.187056  	0.049606 
3167.115872  	0.049740 
3169.044688  	0.049873 
3170.973504  	0.049956 
3172.902320  	0.050027 
3174.831136  	0.050198 
3176.759952  	0.050390 
3178.688768  	0.050642 
3180.617584  	0.050655 
3182.546400  	0.050418 
3184.475216  	0.050613 
3186.404032  	0.050903 
3188.332848  	0.050813 
3190.261664  	0.050979 
3192.190480  	0.051206 
3194.119296  	0.051052 
3196.048112  	0.050885 
3197.976928  	0.051031 
3199.905744  	0.051024 
3201.834560  	0.051068 
3203.763376  	0.051268 
3205.692192  	0.051226 
3207.621008  	0.051006 
3209.549824  	0.050848 
3211.478640  	0.050699 
3213.407456  	0.050617 
3215.336272  	0.050759 
3217.265088  	0.050748 
3219.193904  	0.050405 
3221.122720  	0.050115 
3223.051536  	0.050062 
3224.980352  	0.049960 
3226.909168  	0.049653 
3228.837984  	0.049327 
3230.766800  	0.049431 
3232.695616  	0.049627 
3234.624432  	0.049577 
3236.553248  	0.049510 
3238.482064  	0.049303 
3240.410880  	0.049140 
3242.339696  	0.049068 
3244.268512  	0.048985 
3246.197328  	0.048951 
3248.126144  	0.049013 
3250.054960  	0.049088 
3251.983776  	0.049116 
3253.912592  	0.049076 
3255.841408  	0.048946 
3257.770224  	0.048984 
3259.699040  	0.049117 
3261.627856  	0.049211 
3263.556672  	0.049312 
3265.485488  	0.049186 
3267.414304  	0.049263 
3269.343120  	0.049409 
3271.271936  	0.049567 
3273.200752  	0.049749 
3275.129568  	0.049736 
3277.058384  	0.049682 
3278.987200  	0.049879 
3280.916016  	0.050043 
3282.844832  	0.050139 
3284.773648  	0.050209 
3286.702464  	0.050184 
3288.631280  	0.050160 
3290.560096  	0.050330 
3292.488912  	0.050562 
3294.417728  	0.050676 
3296.346544  	0.050772 
3298.275360  	0.050896 
3300.204176  	0.051164 
3302.132992  	0.051195 
3304.061808  	0.051261 
3305.990624  	0.051432 
3307.919440  	0.051464 
3309.848256  	0.051506 
3311.777072  	0.051449 
3313.705888  	0.051721 
3315.634704  	0.052197 
3317.563520  	0.052353 
3319.492336  	0.052382 
3321.421152  	0.052460 
3323.349968  	0.052433 
3325.278784  	0.052654 
3327.207600  	0.052760 
3329.136416  	0.052712 
3331.065232  	0.052601 
3332.994048  	0.052625 
3334.922864  	0.052692 
3336.851680  	0.052563 
3338.780496  	0.052391 
3340.709312  	0.052266 
3342.638128  	0.052191 
3344.566944  	0.052228 
3346.495760  	0.052210 
3348.424576  	0.052104 
3350.353392  	0.051821 
3352.282208  	0.051503 
3354.211024  	0.051458 
3356.139840  	0.051336 
3358.068656  	0.051043 
3359.997472  	0.050798 
3361.926288  	0.050658 
3363.855104  	0.050355 
3365.783920  	0.050086 
3367.712736  	0.050060 
3369.641552  	0.049809 
3371.570368  	0.049388 
3373.499184  	0.049163 
3375.428000  	0.048906 
3377.356816  	0.048617 
3379.285632  	0.048557 
3381.214448  	0.048543 
3383.143264  	0.048311 
3385.072080  	0.048075 
3387.000896  	0.047828 
3388.929712  	0.047617 
3390.858528  	0.047357 
3392.787344  	0.047106 
3394.716160  	0.046778 
3396.644976  	0.046394 
3398.573792  	0.046146 
3400.502608  	0.045819 
3402.431424  	0.045370 
3404.360240  	0.044915 
3406.289056  	0.044632 
3408.217872  	0.044369 
3410.146688  	0.044186 
3412.075504  	0.044175 
3414.004320  	0.044030 
3415.933136  	0.043479 
3417.861952  	0.042990 
3419.790768  	0.042902 
3421.719584  	0.042744 
3423.648400  	0.042258 
3425.577216  	0.041927 
3427.506032  	0.041785 
3429.434848  	0.041421 
3431.363664  	0.041163 
3433.292480  	0.041180 
3435.221296  	0.040951 
3437.150112  	0.040535 
3439.078928  	0.040349 
3441.007744  	0.040061 
3442.936560  	0.039775 
3444.865376  	0.039318 
3446.794192  	0.038855 
3448.723008  	0.038644 
3450.651824  	0.038179 
3452.580640  	0.037772 
3454.509456  	0.037362 
3456.438272  	0.036975 
3458.367088  	0.036749 
3460.295904  	0.036653 
3462.224720  	0.036312 
3464.153536  	0.035663 
3466.082352  	0.035256 
3468.011168  	0.034895 
3469.939984  	0.034485 
3471.868800  	0.034147 
3473.797616  	0.033862 
3475.726432  	0.033476 
3477.655248  	0.033001 
3479.584064  	0.032579 
3481.512880  	0.032466 
3483.441696  	0.032075 
3485.370512  	0.031349 
3487.299328  	0.030977 
3489.228144  	0.030654 
3491.156960  	0.030083 
3493.085776  	0.029791 
3495.014592  	0.029489 
3496.943408  	0.029150 
3498.872224  	0.028711 
3500.801040  	0.028502 
3502.729856  	0.028343 
3504.658672  	0.027844 
3506.587488  	0.027077 
3508.516304  	0.026825 
3510.445120  	0.026789 
3512.373936  	0.026473 
3514.302752  	0.026156 
3516.231568  	0.025730 
3518.160384  	0.025284 
3520.089200  	0.025011 
3522.018016  	0.025059 
3523.946832  	0.025208 
3525.875648  	0.024655 
3527.804464  	0.024082 
3529.733280  	0.023844 
3531.662096  	0.023536 
3533.590912  	0.023127 
3535.519728  	0.023060 
3537.448544  	0.022942 
3539.377360  	0.022434 
3541.306176  	0.021737 
3543.234992  	0.021434 
3545.163808  	0.021885 
3547.092624  	0.021736 
3549.021440  	0.020740 
3550.950256  	0.020010 
3552.879072  	0.020287 
3554.807888  	0.020273 
3556.736704  	0.019658 
3558.665520  	0.019300 
3560.594336  	0.019348 
3562.523152  	0.018930 
3564.451968  	0.018432 
3566.380784  	0.018604 
3568.309600  	0.019106 
3570.238416  	0.018322 
3572.167232  	0.017182 
3574.096048  	0.016606 
3576.024864  	0.016288 
3577.953680  	0.015903 
3579.882496  	0.015709 
3581.811312  	0.015573 
3583.740128  	0.014918 
3585.668944  	0.014307 
3587.597760  	0.014977 
3589.526576  	0.014887 
3591.455392  	0.013390 
3593.384208  	0.012991 
3595.313024  	0.012942 
3597.241840  	0.012354 
3599.170656  	0.011565 
3601.099472  	0.011426 
3603.028288  	0.011377 
3604.957104  	0.010583 
3606.885920  	0.009811 
3608.814736  	0.009967 
3610.743552  	0.009426 
3612.672368  	0.008712 
3614.601184  	0.008661 
3616.530000  	0.007634 
3618.458816  	0.007010 
3620.387632  	0.007433 
3622.316448  	0.007011 
3624.245264  	0.006207 
3626.174080  	0.005107 
3628.102896  	0.004199 
3630.031712  	0.005665 
3631.960528  	0.005305 
3633.889344  	0.004203 
3635.818160  	0.003493 
3637.746976  	0.003136 
3639.675792  	0.003031 
3641.604608  	0.002887 
3643.533424  	0.002349 
3645.462240  	0.000782 
3647.391056  	-0.000700 
3649.319872  	-0.001107 
3651.248688  	0.000329 
3653.177504  	0.000277 
3655.106320  	-0.001140 
3657.035136  	-0.000994 
3658.963952  	-0.001012 
3660.892768  	-0.001663 
3662.821584  	-0.002132 
3664.750400  	-0.002426 
3666.679216  	-0.003289 
3668.608032  	-0.004656 
3670.536848  	-0.004196 
3672.465664  	-0.003868 
3674.394480  	-0.006068 
3676.323296  	-0.004849 
3678.252112  	-0.003212 
3680.180928  	-0.002882 
3682.109744  	-0.003161 
3684.038560  	-0.003656 
3685.967376  	-0.004644 
3687.896192  	-0.006031 
3689.825008  	-0.005470 
3691.753824  	-0.004034 
3693.682640  	-0.003446 
3695.611456  	-0.003476 
3697.540272  	-0.003374 
3699.469088  	-0.003716 
3701.397904  	-0.003392 
3703.326720  	-0.002546 
3705.255536  	-0.002714 
3707.184352  	-0.003512 
3709.113168  	-0.004389 
3711.041984  	-0.004265 
3712.970800  	-0.002527 
3714.899616  	-0.001654 
3716.828432  	-0.002211 
3718.757248  	-0.002797 
3720.686064  	-0.003192 
3722.614880  	-0.002563 
3724.543696  	-0.001907 
3726.472512  	-0.001704 
3728.401328  	-0.002200 
3730.330144  	-0.003963 
3732.258960  	-0.004830 
3734.187776  	-0.003494 
3736.116592  	-0.001688 
3738.045408  	-0.001852 
3739.974224  	-0.002641 
3741.903040  	-0.003301 
3743.831856  	-0.003521 
3745.760672  	-0.002216 
3747.689488  	-0.003885 
3749.618304  	-0.005225 
3751.547120  	-0.004089 
3753.475936  	-0.001846 
3755.404752  	-0.002014 
3757.333568  	-0.002619 
3759.262384  	-0.002533 
3761.191200  	-0.001607 
3763.120016  	-0.001729 
3765.048832  	-0.002206 
3766.977648  	-0.002294 
3768.906464  	-0.002701 
3770.835280  	-0.001853 
3772.764096  	-0.001289 
3774.692912  	-0.001603 
3776.621728  	-0.002395 
3778.550544  	-0.002864 
3780.479360  	-0.002149 
3782.408176  	-0.001948 
3784.336992  	-0.002141 
3786.265808  	-0.001851 
3788.194624  	-0.001784 
3790.123440  	-0.001897 
3792.052256  	-0.001967 
3793.981072  	-0.002589 
3795.909888  	-0.003052 
3797.838704  	-0.002701 
3799.767520  	-0.003980 
3801.696336  	-0.003880 
3803.625152  	-0.002554 
3805.553968  	-0.003516 
3807.482784  	-0.002994 
3809.411600  	-0.001858 
3811.340416  	-0.001798 
3813.269232  	-0.002623 
3815.198048  	-0.003807 
3817.126864  	-0.003123 
3819.055680  	-0.004092 
3820.984496  	-0.004301 
3822.913312  	-0.002127 
3824.842128  	-0.002396 
3826.770944  	-0.002577 
3828.699760  	-0.002409 
3830.628576  	-0.002950 
3832.557392  	-0.002966 
3834.486208  	-0.003521 
3836.415024  	-0.004321 
3838.343840  	-0.003759 
3840.272656  	-0.002898 
3842.201472  	-0.002749 
3844.130288  	-0.002474 
3846.059104  	-0.001920 
3847.987920  	-0.002227 
3849.916736  	-0.003315 
3851.845552  	-0.005060 
3853.774368  	-0.003435 
3855.703184  	-0.001593 
3857.632000  	-0.001993 
3859.560816  	-0.002505 
3861.489632  	-0.002812 
3863.418448  	-0.002914 
3865.347264  	-0.002385 
3867.276080  	-0.002651 
3869.204896  	-0.003175 
3871.133712  	-0.001714 
3873.062528  	-0.002198 
3874.991344  	-0.001915 
3876.920160  	-0.002118 
3878.848976  	-0.002771 
3880.777792  	-0.001890 
3882.706608  	-0.001617 
3884.635424  	-0.002346 
3886.564240  	-0.001660 
3888.493056  	-0.002037 
3890.421872  	-0.002567 
3892.350688  	-0.001683 
3894.279504  	-0.001526 
3896.208320  	-0.002097 
3898.137136  	-0.002373 
3900.065952  	-0.002128 
3901.994768  	-0.002081 
3903.923584  	-0.001726 
3905.852400  	-0.001130 
3907.781216  	-0.001432 
3909.710032  	-0.001787 
3911.638848  	-0.001865 
3913.567664  	-0.001933 
3915.496480  	-0.001782 
3917.425296  	-0.001017 
3919.354112  	-0.000976 
3921.282928  	-0.001242 
3923.211744  	-0.001621 
3925.140560  	-0.001428 
3927.069376  	-0.001620 
3928.998192  	-0.001976 
3930.927008  	-0.001466 
3932.855824  	-0.000838 
3934.784640  	-0.001252 
3936.713456  	-0.001479 
3938.642272  	-0.001416 
3940.571088  	-0.001705 
3942.499904  	-0.001227 
3944.428720  	-0.000973 
3946.357536  	-0.001347 
3948.286352  	-0.001194 
3950.215168  	-0.001389 
3952.143984  	-0.001747 
3954.072800  	-0.001780 
3956.001616  	-0.001860 
3957.930432  	-0.001821 
3959.859248  	-0.001633 
3961.788064  	-0.001482 
3963.716880  	-0.001420 
3965.645696  	-0.001599 
3967.574512  	-0.001463 
3969.503328  	-0.001455 
3971.432144  	-0.001699 
3973.360960  	-0.001725 
3975.289776  	-0.001413 
3977.218592  	-0.001294 
3979.147408  	-0.001308 
3981.076224  	-0.001462 
3983.005040  	-0.001656 
3984.933856  	-0.001611 
3986.862672  	-0.001513 
3988.791488  	-0.001597 
3990.720304  	-0.001507 
3992.649120  	-0.001517 
3994.577936  	-0.001633 
3996.506752  	-0.001665 
3998.435568  	-0.001545 
4000.364384  	-0.001626 