##TITLE=No Description
##DATA TYPE=INFRARED SPECTRUM
##XUNITS=1/CM
##YUNITS=Abs
399.264912  	0.580354 
401.193728  	0.573372 
403.122544  	0.570358 
405.051360  	0.556159 
406.980176  	0.553029 
408.908992  	0.557773 
410.837808  	0.560218 
412.766624  	0.558277 
414.695440  	0.565689 
416.624256  	0.562445 
418.553072  	0.559679 
420.481888  	0.550364 
422.410704  	0.549492 
424.339520  	0.534309 
426.268336  	0.534384 
428.197152  	0.534183 
430.125968  	0.536455 
432.054784  	0.530443 
433.983600  	0.527668 
435.912416  	0.517820 
437.841232  	0.511447 
439.770048  	0.512112 
441.698864  	0.514279 
443.627680  	0.509395 
445.556496  	0.505853 
447.485312  	0.504099 
449.414128  	0.501658 
451.342944  	0.495014 
453.271760  	0.500118 
455.200576  	0.501673 
457.129392  	0.503532 
459.058208  	0.499600 
460.987024  	0.498781 
462.915840  	0.498263 
464.844656  	0.499325 
466.773472  	0.498585 
468.702288  	0.497346 
470.631104  	0.490629 
472.559920  	0.491848 
474.488736  	0.493388 
476.417552  	0.495571 
478.346368  	0.490283 
480.275184  	0.488543 
482.204000  	0.488089 
484.132816  	0.488377 
486.061632  	0.486646 
487.990448  	0.488240 
489.919264  	0.484735 
491.848080  	0.482918 
493.776896  	0.481796 
495.705712  	0.484289 
497.634528  	0.481874 
499.563344  	0.481560 
501.492160  	0.478675 
503.420976  	0.479034 
505.349792  	0.477615 
507.278608  	0.478268 
509.207424  	0.478488 
511.136240  	0.478460 
513.065056  	0.478178 
514.993872  	0.479290 
516.922688  	0.477526 
518.851504  	0.477798 
520.780320  	0.476228 
522.709136  	0.478783 
524.637952  	0.476307 
526.566768  	0.473360 
528.495584  	0.471348 
530.424400  	0.469192 
532.353216  	0.464616 
534.282032  	0.461061 
536.210848  	0.457542 
538.139664  	0.455925 
540.068480  	0.452170 
541.997296  	0.449080 
543.926112  	0.444773 
545.854928  	0.443118 
547.783744  	0.440841 
549.712560  	0.436451 
551.641376  	0.431449 
553.570192  	0.429529 
555.499008  	0.426872 
557.427824  	0.424390 
559.356640  	0.421425 
561.285456  	0.417786 
563.214272  	0.414185 
565.143088  	0.412446 
567.071904  	0.408149 
569.000720  	0.404714 
570.929536  	0.401208 
572.858352  	0.399035 
574.787168  	0.397447 
576.715984  	0.395458 
578.644800  	0.391057 
580.573616  	0.387456 
582.502432  	0.383256 
584.431248  	0.381051 
586.360064  	0.378613 
588.288880  	0.376162 
590.217696  	0.374442 
592.146512  	0.372816 
594.075328  	0.370657 
596.004144  	0.368793 
597.932960  	0.367578 
599.861776  	0.367115 
601.790592  	0.365935 
603.719408  	0.364788 
605.648224  	0.362253 
607.577040  	0.361243 
609.505856  	0.360076 
611.434672  	0.359129 
613.363488  	0.356472 
615.292304  	0.355088 
617.221120  	0.353058 
619.149936  	0.350945 
621.078752  	0.349163 
623.007568  	0.348027 
624.936384  	0.345745 
626.865200  	0.344309 
628.794016  	0.343052 
630.722832  	0.341794 
632.651648  	0.340257 
634.580464  	0.338770 
636.509280  	0.338098 
638.438096  	0.337898 
640.366912  	0.337413 
642.295728  	0.335194 
644.224544  	0.331621 
646.153360  	0.328941 
648.082176  	0.326097 
650.010992  	0.322999 
651.939808  	0.319690 
653.868624  	0.316788 
655.797440  	0.313116 
657.726256  	0.309716 
659.655072  	0.306104 
661.583888  	0.303623 
663.512704  	0.301005 
665.441520  	0.297803 
667.370336  	0.292275 
669.299152  	0.288400 
671.227968  	0.287883 
673.156784  	0.286007 
675.085600  	0.283817 
677.014416  	0.281920 
678.943232  	0.279979 
680.872048  	0.278052 
682.800864  	0.276785 
684.729680  	0.275659 
686.658496  	0.273918 
688.587312  	0.272159 
690.516128  	0.270258 
692.444944  	0.269017 
694.373760  	0.267502 
696.302576  	0.265789 
698.231392  	0.263340 
700.160208  	0.260938 
702.089024  	0.258633 
704.017840  	0.256788 
705.946656  	0.254164 
707.875472  	0.252187 
709.804288  	0.250190 
711.733104  	0.248656 
713.661920  	0.246896 
715.590736  	0.245903 
717.519552  	0.245398 
719.448368  	0.245454 
721.377184  	0.245795 
723.306000  	0.245881 
725.234816  	0.245195 
727.163632  	0.243307 
729.092448  	0.241165 
731.021264  	0.238956 
732.950080  	0.236368 
734.878896  	0.233771 
736.807712  	0.231547 
738.736528  	0.229872 
740.665344  	0.228078 
742.594160  	0.226811 
744.522976  	0.225354 
746.451792  	0.223974 
748.380608  	0.222788 
750.309424  	0.221911 
752.238240  	0.221032 
754.167056  	0.220455 
756.095872  	0.219494 
758.024688  	0.218185 
759.953504  	0.217158 
761.882320  	0.216851 
763.811136  	0.216435 
765.739952  	0.215465 
767.668768  	0.214082 
769.597584  	0.212831 
771.526400  	0.212411 
773.455216  	0.213623 
775.384032  	0.215315 
777.312848  	0.217571 
779.241664  	0.219721 
781.170480  	0.219751 
783.099296  	0.217046 
785.028112  	0.212572 
786.956928  	0.207367 
788.885744  	0.203189 
790.814560  	0.200049 
792.743376  	0.198016 
794.672192  	0.196147 
796.601008  	0.195021 
798.529824  	0.193345 
800.458640  	0.190451 
802.387456  	0.187432 
804.316272  	0.185746 
806.245088  	0.184770 
808.173904  	0.184046 
810.102720  	0.183501 
812.031536  	0.183068 
813.960352  	0.182468 
815.889168  	0.182017 
817.817984  	0.181616 
819.746800  	0.181203 
821.675616  	0.180638 
823.604432  	0.179766 
825.533248  	0.178659 
827.462064  	0.177450 
829.390880  	0.176219 
831.319696  	0.175285 
833.248512  	0.173944 
835.177328  	0.172014 
837.106144  	0.169950 
839.034960  	0.167557 
840.963776  	0.165021 
842.892592  	0.162431 
844.821408  	0.159799 
846.750224  	0.157324 
848.679040  	0.155185 
850.607856  	0.153120 
852.536672  	0.151537 
854.465488  	0.149959 
856.394304  	0.148405 
858.323120  	0.146764 
860.251936  	0.145130 
862.180752  	0.143179 
864.109568  	0.141477 
866.038384  	0.140018 
867.967200  	0.138383 
869.896016  	0.137017 
871.824832  	0.135847 
873.753648  	0.135300 
875.682464  	0.135131 
877.611280  	0.135120 
879.540096  	0.134982 
881.468912  	0.135436 
883.397728  	0.135557 
885.326544  	0.135556 
887.255360  	0.135358 
889.184176  	0.134600 
891.112992  	0.133355 
893.041808  	0.132252 
894.970624  	0.130661 
896.899440  	0.128335 
898.828256  	0.125561 
900.757072  	0.122578 
902.685888  	0.120035 
904.614704  	0.118619 
906.543520  	0.118192 
908.472336  	0.118713 
910.401152  	0.120023 
912.329968  	0.121832 
914.258784  	0.123934 
916.187600  	0.125994 
918.116416  	0.127358 
920.045232  	0.128032 
921.974048  	0.127631 
923.902864  	0.126870 
925.831680  	0.125924 
927.760496  	0.124982 
929.689312  	0.124114 
931.618128  	0.123832 
933.546944  	0.123924 
935.475760  	0.123914 
937.404576  	0.124017 
939.333392  	0.124492 
941.262208  	0.125296 
943.191024  	0.126736 
945.119840  	0.129172 
947.048656  	0.132152 
948.977472  	0.136001 
950.906288  	0.140726 
952.835104  	0.145819 
954.763920  	0.150862 
956.692736  	0.155684 
958.621552  	0.159916 
960.550368  	0.162692 
962.479184  	0.164170 
964.408000  	0.163320 
966.336816  	0.160678 
968.265632  	0.156151 
970.194448  	0.150234 
972.123264  	0.143177 
974.052080  	0.135637 
975.980896  	0.128177 
977.909712  	0.121065 
979.838528  	0.115167 
981.767344  	0.110327 
983.696160  	0.106830 
985.624976  	0.105064 
987.553792  	0.105109 
989.482608  	0.106532 
991.411424  	0.109359 
993.340240  	0.113560 
995.269056  	0.118956 
997.197872  	0.124633 
999.126688  	0.129920 
1001.055504  	0.135422 
1002.984320  	0.140578 
1004.913136  	0.145400 
1006.841952  	0.149612 
1008.770768  	0.153251 
1010.699584  	0.155733 
1012.628400  	0.157504 
1014.557216  	0.158598 
1016.486032  	0.159078 
1018.414848  	0.159335 
1020.343664  	0.159664 
1022.272480  	0.159886 
1024.201296  	0.159568 
1026.130112  	0.158173 
1028.058928  	0.157903 
1029.987744  	0.159580 
1031.916560  	0.160953 
1033.845376  	0.162020 
1035.774192  	0.163062 
1037.703008  	0.165015 
1039.631824  	0.168972 
1041.560640  	0.173779 
1043.489456  	0.180111 
1045.418272  	0.188169 
1047.347088  	0.198435 
1049.275904  	0.209642 
1051.204720  	0.220900 
1053.133536  	0.230795 
1055.062352  	0.238798 
1056.991168  	0.243850 
1058.919984  	0.247853 
1060.848800  	0.249580 
1062.777616  	0.248752 
1064.706432  	0.245195 
1066.635248  	0.241225 
1068.564064  	0.238483 
1070.492880  	0.234592 
1072.421696  	0.229003 
1074.350512  	0.223938 
1076.279328  	0.219877 
1078.208144  	0.216900 
1080.136960  	0.214409 
1082.065776  	0.212653 
1083.994592  	0.210980 
1085.923408  	0.209137 
1087.852224  	0.206355 
1089.781040  	0.203591 
1091.709856  	0.199933 
1093.638672  	0.194653 
1095.567488  	0.187527 
1097.496304  	0.180164 
1099.425120  	0.172251 
1101.353936  	0.164398 
1103.282752  	0.156544 
1105.211568  	0.148558 
1107.140384  	0.140811 
1109.069200  	0.133175 
1110.998016  	0.126123 
1112.926832  	0.119827 
1114.855648  	0.113801 
1116.784464  	0.107692 
1118.713280  	0.102146 
1120.642096  	0.097151 
1122.570912  	0.092274 
1124.499728  	0.087583 
1126.428544  	0.083114 
1128.357360  	0.078872 
1130.286176  	0.074896 
1132.214992  	0.071556 
1134.143808  	0.068709 
1136.072624  	0.066014 
1138.001440  	0.063282 
1139.930256  	0.060894 
1141.859072  	0.058913 
1143.787888  	0.056912 
1145.716704  	0.055345 
1147.645520  	0.054314 
1149.574336  	0.053425 
1151.503152  	0.052612 
1153.431968  	0.052337 
1155.360784  	0.052345 
1157.289600  	0.052785 
1159.218416  	0.053285 
1161.147232  	0.054069 
1163.076048  	0.054955 
1165.004864  	0.056151 
1166.933680  	0.057182 
1168.862496  	0.058487 
1170.791312  	0.060206 
1172.720128  	0.061936 
1174.648944  	0.063572 
1176.577760  	0.065545 
1178.506576  	0.067632 
1180.435392  	0.069413 
1182.364208  	0.071284 
1184.293024  	0.073463 
1186.221840  	0.075738 
1188.150656  	0.078217 
1190.079472  	0.081192 
1192.008288  	0.084672 
1193.937104  	0.088536 
1195.865920  	0.092991 
1197.794736  	0.097480 
1199.723552  	0.102450 
1201.652368  	0.107745 
1203.581184  	0.113042 
1205.510000  	0.118083 
1207.438816  	0.123235 
1209.367632  	0.128363 
1211.296448  	0.132936 
1213.225264  	0.136912 
1215.154080  	0.140240 
1217.082896  	0.143046 
1219.011712  	0.145195 
1220.940528  	0.147090 
1222.869344  	0.148294 
1224.798160  	0.149050 
1226.726976  	0.149448 
1228.655792  	0.149507 
1230.584608  	0.148993 
1232.513424  	0.147906 
1234.442240  	0.146101 
1236.371056  	0.143953 
1238.299872  	0.141062 
1240.228688  	0.136610 
1242.157504  	0.131845 
1244.086320  	0.127549 
1246.015136  	0.122325 
1247.943952  	0.116593 
1249.872768  	0.111030 
1251.801584  	0.106066 
1253.730400  	0.101030 
1255.659216  	0.096105 
1257.588032  	0.091450 
1259.516848  	0.087231 
1261.445664  	0.083335 
1263.374480  	0.079836 
1265.303296  	0.076603 
1267.232112  	0.074064 
1269.160928  	0.072388 
1271.089744  	0.071387 
1273.018560  	0.071014 
1274.947376  	0.071075 
1276.876192  	0.071260 
1278.805008  	0.071002 
1280.733824  	0.069794 
1282.662640  	0.067472 
1284.591456  	0.064554 
1286.520272  	0.061514 
1288.449088  	0.058929 
1290.377904  	0.056767 
1292.306720  	0.055147 
1294.235536  	0.053222 
1296.164352  	0.050674 
1298.093168  	0.047788 
1300.021984  	0.044971 
1301.950800  	0.042404 
1303.879616  	0.040270 
1305.808432  	0.038709 
1307.737248  	0.037601 
1309.666064  	0.036552 
1311.594880  	0.036200 
1313.523696  	0.036202 
1315.452512  	0.036162 
1317.381328  	0.036543 
1319.310144  	0.037259 
1321.238960  	0.037785 
1323.167776  	0.038349 
1325.096592  	0.038731 
1327.025408  	0.038755 
1328.954224  	0.038297 
1330.883040  	0.037567 
1332.811856  	0.036619 
1334.740672  	0.035945 
1336.669488  	0.035551 
1338.598304  	0.035488 
1340.527120  	0.034945 
1342.455936  	0.033911 
1344.384752  	0.033637 
1346.313568  	0.034129 
1348.242384  	0.035089 
1350.171200  	0.036441 
1352.100016  	0.037858 
1354.028832  	0.039427 
1355.957648  	0.041084 
1357.886464  	0.042603 
1359.815280  	0.043933 
1361.744096  	0.045540 
1363.672912  	0.046797 
1365.601728  	0.046905 
1367.530544  	0.047035 
1369.459360  	0.047180 
1371.388176  	0.046436 
1373.316992  	0.045398 
1375.245808  	0.044029 
1377.174624  	0.042461 
1379.103440  	0.040830 
1381.032256  	0.039198 
1382.961072  	0.037974 
1384.889888  	0.037268 
1386.818704  	0.037150 
1388.747520  	0.036593 
1390.676336  	0.034974 
1392.605152  	0.032810 
1394.533968  	0.032241 
1396.462784  	0.033935 
1398.391600  	0.034409 
1400.320416  	0.034611 
1402.249232  	0.034510 
1404.178048  	0.035303 
1406.106864  	0.036450 
1408.035680  	0.037774 
1409.964496  	0.039509 
1411.893312  	0.041511 
1413.822128  	0.043118 
1415.750944  	0.044860 
1417.679760  	0.045893 
1419.608576  	0.046358 
1421.537392  	0.046006 
1423.466208  	0.045490 
1425.395024  	0.044526 
1427.323840  	0.042941 
1429.252656  	0.041618 
1431.181472  	0.040968 
1433.110288  	0.040527 
1435.039104  	0.040137 
1436.967920  	0.040793 
1438.896736  	0.041180 
1440.825552  	0.041217 
1442.754368  	0.041575 
1444.683184  	0.041410 
1446.612000  	0.041233 
1448.540816  	0.041388 
1450.469632  	0.041510 
1452.398448  	0.041520 
1454.327264  	0.041258 
1456.256080  	0.041182 
1458.184896  	0.042453 
1460.113712  	0.042884 
1462.042528  	0.042809 
1463.971344  	0.042884 
1465.900160  	0.044817 
1467.828976  	0.046582 
1469.757792  	0.047968 
1471.686608  	0.049956 
1473.615424  	0.054204 
1475.544240  	0.056985 
1477.473056  	0.058739 
1479.401872  	0.059128 
1481.330688  	0.059357 
1483.259504  	0.059013 
1485.188320  	0.058034 
1487.117136  	0.056396 
1489.045952  	0.054930 
1490.974768  	0.052836 
1492.903584  	0.050174 
1494.832400  	0.047206 
1496.761216  	0.044492 
1498.690032  	0.042437 
1500.618848  	0.041225 
1502.547664  	0.039529 
1504.476480  	0.036802 
1506.405296  	0.035853 
1508.334112  	0.038344 
1510.262928  	0.037511 
1512.191744  	0.036261 
1514.120560  	0.035263 
1516.049376  	0.035012 
1517.978192  	0.035124 
1519.907008  	0.035096 
1521.835824  	0.036855 
1523.764640  	0.039215 
1525.693456  	0.041522 
1527.622272  	0.043827 
1529.551088  	0.044922 
1531.479904  	0.045103 
1533.408720  	0.045081 
1535.337536  	0.044904 
1537.266352  	0.042347 
1539.195168  	0.038455 
1541.123984  	0.037602 
1543.052800  	0.039011 
1544.981616  	0.039137 
1546.910432  	0.037979 
1548.839248  	0.037224 
1550.768064  	0.037369 
1552.696880  	0.036529 
1554.625696  	0.036587 
1556.554512  	0.035241 
1558.483328  	0.034267 
1560.412144  	0.039764 
1562.340960  	0.042007 
1564.269776  	0.043204 
1566.198592  	0.045730 
1568.127408  	0.047455 
1570.056224  	0.051306 
1571.985040  	0.054747 
1573.913856  	0.055579 
1575.842672  	0.056098 
1577.771488  	0.058712 
1579.700304  	0.059101 
1581.629120  	0.059052 
1583.557936  	0.059246 
1585.486752  	0.060498 
1587.415568  	0.062535 
1589.344384  	0.065586 
1591.273200  	0.069054 
1593.202016  	0.073111 
1595.130832  	0.076969 
1597.059648  	0.080804 
1598.988464  	0.083681 
1600.917280  	0.085979 
1602.846096  	0.087246 
1604.774912  	0.088064 
1606.703728  	0.087770 
1608.632544  	0.087488 
1610.561360  	0.087041 
1612.490176  	0.086954 
1614.418992  	0.086167 
1616.347808  	0.086924 
1618.276624  	0.090446 
1620.205440  	0.093613 
1622.134256  	0.096322 
1624.063072  	0.101963 
1625.991888  	0.107012 
1627.920704  	0.112671 
1629.849520  	0.119034 
1631.778336  	0.124089 
1633.707152  	0.127063 
1635.635968  	0.132209 
1637.564784  	0.139247 
1639.493600  	0.143166 
1641.422416  	0.146060 
1643.351232  	0.147851 
1645.280048  	0.147905 
1647.208864  	0.149382 
1649.137680  	0.150372 
1651.066496  	0.148432 
1652.995312  	0.146434 
1654.924128  	0.149782 
1656.852944  	0.149115 
1658.781760  	0.147976 
1660.710576  	0.146496 
1662.639392  	0.145484 
1664.568208  	0.145162 
1666.497024  	0.144022 
1668.425840  	0.142232 
1670.354656  	0.142012 
1672.283472  	0.142039 
1674.212288  	0.141451 
1676.141104  	0.142441 
1678.069920  	0.143242 
1679.998736  	0.143800 
1681.927552  	0.143282 
1683.856368  	0.142458 
1685.785184  	0.145088 
1687.714000  	0.145105 
1689.642816  	0.144231 
1691.571632  	0.142435 
1693.500448  	0.139735 
1695.429264  	0.136137 
1697.358080  	0.133151 
1699.286896  	0.129343 
1701.215712  	0.126320 
1703.144528  	0.123289 
1705.073344  	0.118833 
1707.002160  	0.114401 
1708.930976  	0.110395 
1710.859792  	0.105721 
1712.788608  	0.100598 
1714.717424  	0.095162 
1716.646240  	0.089146 
1718.575056  	0.083820 
1720.503872  	0.079164 
1722.432688  	0.074466 
1724.361504  	0.069098 
1726.290320  	0.064022 
1728.219136  	0.059160 
1730.147952  	0.054623 
1732.076768  	0.049682 
1734.005584  	0.044835 
1735.934400  	0.040520 
1737.863216  	0.036888 
1739.792032  	0.032504 
1741.720848  	0.029715 
1743.649664  	0.027274 
1745.578480  	0.024510 
1747.507296  	0.021699 
1749.436112  	0.020191 
1751.364928  	0.019325 
1753.293744  	0.018123 
1755.222560  	0.016431 
1757.151376  	0.015808 
1759.080192  	0.014645 
1761.009008  	0.013912 
1762.937824  	0.013622 
1764.866640  	0.013198 
1766.795456  	0.012594 
1768.724272  	0.012468 
1770.653088  	0.010680 
1772.581904  	0.010404 
1774.510720  	0.011209 
1776.439536  	0.011455 
1778.368352  	0.011074 
1780.297168  	0.011157 
1782.225984  	0.010945 
1784.154800  	0.010826 
1786.083616  	0.010748 
1788.012432  	0.010351 
1789.941248  	0.009707 
1791.870064  	0.009673 
1793.798880  	0.009891 
1795.727696  	0.010202 
1797.656512  	0.009673 
1799.585328  	0.009408 
1801.514144  	0.009644 
1803.442960  	0.009426 
1805.371776  	0.009035 
1807.300592  	0.009038 
1809.229408  	0.008652 
1811.158224  	0.008730 
1813.087040  	0.008688 
1815.015856  	0.008393 
1816.944672  	0.008330 
1818.873488  	0.008493 
1820.802304  	0.008474 
1822.731120  	0.008459 
1824.659936  	0.008064 
1826.588752  	0.008019 
1828.517568  	0.007579 
1830.446384  	0.008376 
1832.375200  	0.008537 
1834.304016  	0.008245 
1836.232832  	0.008039 
1838.161648  	0.008426 
1840.090464  	0.008381 
1842.019280  	0.007907 
1843.948096  	0.007457 
1845.876912  	0.008291 
1847.805728  	0.008477 
1849.734544  	0.008492 
1851.663360  	0.008030 
1853.592176  	0.008075 
1855.520992  	0.008069 
1857.449808  	0.008434 
1859.378624  	0.008409 
1861.307440  	0.008366 
1863.236256  	0.007873 
1865.165072  	0.007603 
1867.093888  	0.007541 
1869.022704  	0.008393 
1870.951520  	0.008465 
1872.880336  	0.008240 
1874.809152  	0.007787 
1876.737968  	0.007760 
1878.666784  	0.007490 
1880.595600  	0.007736 
1882.524416  	0.007909 
1884.453232  	0.007903 
1886.382048  	0.007638 
1888.310864  	0.007716 
1890.239680  	0.008185 
1892.168496  	0.008255 
1894.097312  	0.007720 
1896.026128  	0.007740 
1897.954944  	0.007462 
1899.883760  	0.007448 
1901.812576  	0.007298 
1903.741392  	0.007383 
1905.670208  	0.007285 
1907.599024  	0.007536 
1909.527840  	0.007306 
1911.456656  	0.007281 
1913.385472  	0.007433 
1915.314288  	0.008055 
1917.243104  	0.008207 
1919.171920  	0.008113 
1921.100736  	0.007821 
1923.029552  	0.008257 
1924.958368  	0.007718 
1926.887184  	0.007543 
1928.816000  	0.007171 
1930.744816  	0.006830 
1932.673632  	0.006703 
1934.602448  	0.007572 
1936.531264  	0.007689 
1938.460080  	0.007095 
1940.388896  	0.007098 
1942.317712  	0.007678 
1944.246528  	0.007522 
1946.175344  	0.007911 
1948.104160  	0.007457 
1950.032976  	0.007510 
1951.961792  	0.007741 
1953.890608  	0.007718 
1955.819424  	0.006556 
1957.748240  	0.006805 
1959.677056  	0.007235 
1961.605872  	0.006848 
1963.534688  	0.005898 
1965.463504  	0.007640 
1967.392320  	0.007308 
1969.321136  	0.006027 
1971.249952  	0.006093 
1973.178768  	0.007461 
1975.107584  	0.006471 
1977.036400  	0.006633 
1978.965216  	0.009314 
1980.894032  	0.009825 
1982.822848  	0.007762 
1984.751664  	0.007419 
1986.680480  	0.007609 
1988.609296  	0.008389 
1990.538112  	0.008736 
1992.466928  	0.008890 
1994.395744  	0.008021 
1996.324560  	0.007778 
1998.253376  	0.007193 
2000.182192  	0.007159 
2002.111008  	0.007251 
2004.039824  	0.007289 
2005.968640  	0.006423 
2007.897456  	0.007450 
2009.826272  	0.007611 
2011.755088  	0.006457 
2013.683904  	0.006078 
2015.612720  	0.007234 
2017.541536  	0.007584 
2019.470352  	0.008058 
2021.399168  	0.007447 
2023.327984  	0.008351 
2025.256800  	0.008343 
2027.185616  	0.006861 
2029.114432  	0.006033 
2031.043248  	0.007505 
2032.972064  	0.007333 
2034.900880  	0.008133 
2036.829696  	0.008207 
2038.758512  	0.008401 
2040.687328  	0.007856 
2042.616144  	0.007442 
2044.544960  	0.006959 
2046.473776  	0.007474 
2048.402592  	0.007855 
2050.331408  	0.009412 
2052.260224  	0.008869 
2054.189040  	0.008213 
2056.117856  	0.007708 
2058.046672  	0.007914 
2059.975488  	0.007591 
2061.904304  	0.007889 
2063.833120  	0.008837 
2065.761936  	0.009041 
2067.690752  	0.008121 
2069.619568  	0.007893 
2071.548384  	0.007376 
2073.477200  	0.007568 
2075.406016  	0.008146 
2077.334832  	0.008777 
2079.263648  	0.008347 
2081.192464  	0.008460 
2083.121280  	0.009044 
2085.050096  	0.008853 
2086.978912  	0.008546 
2088.907728  	0.008403 
2090.836544  	0.007760 
2092.765360  	0.007635 
2094.694176  	0.007792 
2096.622992  	0.007936 
2098.551808  	0.007730 
2100.480624  	0.007673 
2102.409440  	0.007597 
2104.338256  	0.008327 
2106.267072  	0.008450 
2108.195888  	0.008475 
2110.124704  	0.009098 
2112.053520  	0.009478 
2113.982336  	0.008858 
2115.911152  	0.008743 
2117.839968  	0.008158 
2119.768784  	0.007743 
2121.697600  	0.007553 
2123.626416  	0.007575 
2125.555232  	0.007460 
2127.484048  	0.007576 
2129.412864  	0.006805 
2131.341680  	0.005936 
2133.270496  	0.006633 
2135.199312  	0.007280 
2137.128128  	0.007381 
2139.056944  	0.007409 
2140.985760  	0.006016 
2142.914576  	0.006432 
2144.843392  	0.006755 
2146.772208  	0.007019 
2148.701024  	0.006943 
2150.629840  	0.007437 
2152.558656  	0.006548 
2154.487472  	0.005293 
2156.416288  	0.004869 
2158.345104  	0.007644 
2160.273920  	0.010257 
2162.202736  	0.010761 
2164.131552  	0.010140 
2166.060368  	0.010732 
2167.989184  	0.009608 
2169.918000  	0.008071 
2171.846816  	0.007395 
2173.775632  	0.008106 
2175.704448  	0.009284 
2177.633264  	0.009953 
2179.562080  	0.009063 
2181.490896  	0.008163 
2183.419712  	0.007783 
2185.348528  	0.008978 
2187.277344  	0.009032 
2189.206160  	0.009053 
2191.134976  	0.009956 
2193.063792  	0.010962 
2194.992608  	0.010417 
2196.921424  	0.009193 
2198.850240  	0.009556 
2200.779056  	0.010005 
2202.707872  	0.009241 
2204.636688  	0.008925 
2206.565504  	0.009326 
2208.494320  	0.009587 
2210.423136  	0.008353 
2212.351952  	0.008726 
2214.280768  	0.009558 
2216.209584  	0.009136 
2218.138400  	0.008513 
2220.067216  	0.008734 
2221.996032  	0.008881 
2223.924848  	0.008420 
2225.853664  	0.008692 
2227.782480  	0.009447 
2229.711296  	0.009591 
2231.640112  	0.009400 
2233.568928  	0.008986 
2235.497744  	0.009013 
2237.426560  	0.008908 
2239.355376  	0.008994 
2241.284192  	0.008556 
2243.213008  	0.008786 
2245.141824  	0.009164 
2247.070640  	0.008838 
2248.999456  	0.008641 
2250.928272  	0.008826 
2252.857088  	0.008317 
2254.785904  	0.008245 
2256.714720  	0.008809 
2258.643536  	0.009275 
2260.572352  	0.008921 
2262.501168  	0.008844 
2264.429984  	0.009052 
2266.358800  	0.009650 
2268.287616  	0.009762 
2270.216432  	0.009501 
2272.145248  	0.008900 
2274.074064  	0.008801 
2276.002880  	0.009107 
2277.931696  	0.009973 
2279.860512  	0.010420 
2281.789328  	0.010508 
2283.718144  	0.010438 
2285.646960  	0.010680 
2287.575776  	0.010824 
2289.504592  	0.010503 
2291.433408  	0.009999 
2293.362224  	0.009819 
2295.291040  	0.009721 
2297.219856  	0.009900 
2299.148672  	0.009996 
2301.077488  	0.009886 
2303.006304  	0.009963 
2304.935120  	0.009807 
2306.863936  	0.009424 
2308.792752  	0.009193 
2310.721568  	0.009130 
2312.650384  	0.008787 
2314.579200  	0.008206 
2316.508016  	0.007811 
2318.436832  	0.007005 
2320.365648  	0.006113 
2322.294464  	0.005502 
2324.223280  	0.004469 
2326.152096  	0.002513 
2328.080912  	0.001045 
2330.009728  	0.000076 
2331.938544  	-0.000483 
2333.867360  	-0.001683 
2335.796176  	-0.002699 
2337.724992  	-0.003093 
2339.653808  	-0.003296 
2341.582624  	-0.003310 
2343.511440  	-0.001789 
2345.440256  	0.000635 
2347.369072  	0.003534 
2349.297888  	0.003524 
2351.226704  	0.000733 
2353.155520  	-0.002192 
2355.084336  	-0.004889 
2357.013152  	-0.006922 
2358.941968  	-0.007869 
2360.870784  	-0.008710 
2362.799600  	-0.008214 
2364.728416  	-0.006884 
2366.657232  	-0.004868 
2368.586048  	-0.002606 
2370.514864  	-0.000080 
2372.443680  	0.002711 
2374.372496  	0.005366 
2376.301312  	0.007270 
2378.230128  	0.008787 
2380.158944  	0.009674 
2382.087760  	0.010004 
2384.016576  	0.010144 
2385.945392  	0.010183 
2387.874208  	0.009957 
2389.803024  	0.009698 
2391.731840  	0.009638 
2393.660656  	0.009715 
2395.589472  	0.009909 
2397.518288  	0.010115 
2399.447104  	0.009989 
2401.375920  	0.009743 
2403.304736  	0.009729 
2405.233552  	0.009977 
2407.162368  	0.010176 
2409.091184  	0.010259 
2411.020000  	0.010172 
2412.948816  	0.010207 
2414.877632  	0.010238 
2416.806448  	0.010429 
2418.735264  	0.010661 
2420.664080  	0.010633 
2422.592896  	0.010399 
2424.521712  	0.010287 
2426.450528  	0.010362 
2428.379344  	0.010421 
2430.308160  	0.010633 
2432.236976  	0.010753 
2434.165792  	0.010941 
2436.094608  	0.011382 
2438.023424  	0.011557 
2439.952240  	0.011643 
2441.881056  	0.011648 
2443.809872  	0.011385 
2445.738688  	0.011348 
2447.667504  	0.011437 
2449.596320  	0.011452 
2451.525136  	0.011601 
2453.453952  	0.011476 
2455.382768  	0.011603 
2457.311584  	0.011901 
2459.240400  	0.011872 
2461.169216  	0.011737 
2463.098032  	0.011716 
2465.026848  	0.011684 
2466.955664  	0.011584 
2468.884480  	0.011480 
2470.813296  	0.011576 
2472.742112  	0.011495 
2474.670928  	0.011434 
2476.599744  	0.011659 
2478.528560  	0.011904 
2480.457376  	0.011935 
2482.386192  	0.011896 
2484.315008  	0.011953 
2486.243824  	0.012138 
2488.172640  	0.011980 
2490.101456  	0.011961 
2492.030272  	0.012201 
2493.959088  	0.012206 
2495.887904  	0.012050 
2497.816720  	0.012316 
2499.745536  	0.012448 
2501.674352  	0.012484 
2503.603168  	0.012427 
2505.531984  	0.012469 
2507.460800  	0.012636 
2509.389616  	0.012444 
2511.318432  	0.012195 
2513.247248  	0.012494 
2515.176064  	0.012698 
2517.104880  	0.012959 
2519.033696  	0.013083 
2520.962512  	0.013127 
2522.891328  	0.013454 
2524.820144  	0.013496 
2526.748960  	0.013273 
2528.677776  	0.013299 
2530.606592  	0.013342 
2532.535408  	0.013319 
2534.464224  	0.013516 
2536.393040  	0.013630 
2538.321856  	0.013500 
2540.250672  	0.013596 
2542.179488  	0.013588 
2544.108304  	0.013680 
2546.037120  	0.013600 
2547.965936  	0.013828 
2549.894752  	0.014145 
2551.823568  	0.014085 
2553.752384  	0.014006 
2555.681200  	0.014281 
2557.610016  	0.014336 
2559.538832  	0.014361 
2561.467648  	0.014405 
2563.396464  	0.014678 
2565.325280  	0.014967 
2567.254096  	0.014902 
2569.182912  	0.014728 
2571.111728  	0.014512 
2573.040544  	0.014346 
2574.969360  	0.014558 
2576.898176  	0.014863 
2578.826992  	0.014979 
2580.755808  	0.014900 
2582.684624  	0.014866 
2584.613440  	0.014792 
2586.542256  	0.015024 
2588.471072  	0.015350 
2590.399888  	0.015233 
2592.328704  	0.015089 
2594.257520  	0.015323 
2596.186336  	0.015731 
2598.115152  	0.015794 
2600.043968  	0.015640 
2601.972784  	0.015772 
2603.901600  	0.015998 
2605.830416  	0.015980 
2607.759232  	0.015723 
2609.688048  	0.015763 
2611.616864  	0.015901 
2613.545680  	0.016010 
2615.474496  	0.016124 
2617.403312  	0.016275 
2619.332128  	0.016393 
2621.260944  	0.016560 
2623.189760  	0.016601 
2625.118576  	0.016644 
2627.047392  	0.016743 
2628.976208  	0.016986 
2630.905024  	0.017143 
2632.833840  	0.017378 
2634.762656  	0.017533 
2636.691472  	0.017572 
2638.620288  	0.017547 
2640.549104  	0.017573 
2642.477920  	0.017655 
2644.406736  	0.017678 
2646.335552  	0.017914 
2648.264368  	0.018042 
2650.193184  	0.017978 
2652.122000  	0.018172 
2654.050816  	0.018387 
2655.979632  	0.018338 
2657.908448  	0.018396 
2659.837264  	0.018459 
2661.766080  	0.018425 
2663.694896  	0.018496 
2665.623712  	0.018414 
2667.552528  	0.018337 
2669.481344  	0.018503 
2671.410160  	0.018767 
2673.338976  	0.018899 
2675.267792  	0.018947 
2677.196608  	0.019032 
2679.125424  	0.019248 
2681.054240  	0.019324 
2682.983056  	0.019318 
2684.911872  	0.019432 
2686.840688  	0.019634 
2688.769504  	0.019726 
2690.698320  	0.019713 
2692.627136  	0.019806 
2694.555952  	0.019887 
2696.484768  	0.019816 
2698.413584  	0.019904 
2700.342400  	0.020031 
2702.271216  	0.020153 
2704.200032  	0.020375 
2706.128848  	0.020498 
2708.057664  	0.020537 
2709.986480  	0.020544 
2711.915296  	0.020595 
2713.844112  	0.020670 
2715.772928  	0.020834 
2717.701744  	0.020945 
2719.630560  	0.020866 
2721.559376  	0.020932 
2723.488192  	0.021068 
2725.417008  	0.021295 
2727.345824  	0.021464 
2729.274640  	0.021503 
2731.203456  	0.021596 
2733.132272  	0.021713 
2735.061088  	0.021805 
2736.989904  	0.021845 
2738.918720  	0.021794 
2740.847536  	0.021791 
2742.776352  	0.021920 
2744.705168  	0.022014 
2746.633984  	0.022088 
2748.562800  	0.022224 
2750.491616  	0.022363 
2752.420432  	0.022458 
2754.349248  	0.022428 
2756.278064  	0.022422 
2758.206880  	0.022475 
2760.135696  	0.022668 
2762.064512  	0.022712 
2763.993328  	0.022697 
2765.922144  	0.022701 
2767.850960  	0.022745 
2769.779776  	0.022837 
2771.708592  	0.022932 
2773.637408  	0.022985 
2775.566224  	0.023002 
2777.495040  	0.022959 
2779.423856  	0.022987 
2781.352672  	0.023239 
2783.281488  	0.023386 
2785.210304  	0.023290 
2787.139120  	0.023410 
2789.067936  	0.023567 
2790.996752  	0.023625 
2792.925568  	0.023705 
2794.854384  	0.023775 
2796.783200  	0.023787 
2798.712016  	0.023821 
2800.640832  	0.023869 
2802.569648  	0.024052 
2804.498464  	0.024208 
2806.427280  	0.024227 
2808.356096  	0.024295 
2810.284912  	0.024489 
2812.213728  	0.024534 
2814.142544  	0.024581 
2816.071360  	0.024764 
2818.000176  	0.024645 
2819.928992  	0.024445 
2821.857808  	0.024553 
2823.786624  	0.024660 
2825.715440  	0.024635 
2827.644256  	0.024478 
2829.573072  	0.024483 
2831.501888  	0.024483 
2833.430704  	0.024328 
2835.359520  	0.024161 
2837.288336  	0.024011 
2839.217152  	0.023978 
2841.145968  	0.023904 
2843.074784  	0.023775 
2845.003600  	0.023814 
2846.932416  	0.023952 
2848.861232  	0.023930 
2850.790048  	0.023793 
2852.718864  	0.023512 
2854.647680  	0.023181 
2856.576496  	0.022951 
2858.505312  	0.022653 
2860.434128  	0.022352 
2862.362944  	0.022011 
2864.291760  	0.021591 
2866.220576  	0.021307 
2868.149392  	0.021430 
2870.078208  	0.021618 
2872.007024  	0.021692 
2873.935840  	0.021790 
2875.864656  	0.021970 
2877.793472  	0.022196 
2879.722288  	0.022191 
2881.651104  	0.021972 
2883.579920  	0.021876 
2885.508736  	0.022009 
2887.437552  	0.022270 
2889.366368  	0.022325 
2891.295184  	0.022288 
2893.224000  	0.022174 
2895.152816  	0.022183 
2897.081632  	0.021867 
2899.010448  	0.021078 
2900.939264  	0.020640 
2902.868080  	0.021335 
2904.796896  	0.022076 
2906.725712  	0.022363 
2908.654528  	0.022616 
2910.583344  	0.022984 
2912.512160  	0.023713 
2914.440976  	0.024620 
2916.369792  	0.025234 
2918.298608  	0.025607 
2920.227424  	0.025895 
2922.156240  	0.026276 
2924.085056  	0.026648 
2926.013872  	0.027284 
2927.942688  	0.027989 
2929.871504  	0.028545 
2931.800320  	0.028984 
2933.729136  	0.029399 
2935.657952  	0.029621 
2937.586768  	0.029872 
2939.515584  	0.029958 
2941.444400  	0.029953 
2943.373216  	0.030166 
2945.302032  	0.030408 
2947.230848  	0.030394 
2949.159664  	0.030083 
2951.088480  	0.029652 
2953.017296  	0.029402 
2954.946112  	0.029062 
2956.874928  	0.028533 
2958.803744  	0.027959 
2960.732560  	0.027598 
2962.661376  	0.027333 
2964.590192  	0.026825 
2966.519008  	0.026181 
2968.447824  	0.025463 
2970.376640  	0.025029 
2972.305456  	0.024663 
2974.234272  	0.024518 
2976.163088  	0.024686 
2978.091904  	0.024665 
2980.020720  	0.024472 
2981.949536  	0.024466 
2983.878352  	0.024162 
2985.807168  	0.023644 
2987.735984  	0.023392 
2989.664800  	0.023640 
2991.593616  	0.025009 
2993.522432  	0.025807 
2995.451248  	0.026050 
2997.380064  	0.026476 
2999.308880  	0.027094 
3001.237696  	0.027745 
3003.166512  	0.028406 
3005.095328  	0.029128 
3007.024144  	0.029840 
3008.952960  	0.030543 
3010.881776  	0.031333 
3012.810592  	0.031954 
3014.739408  	0.032483 
3016.668224  	0.033176 
3018.597040  	0.033719 
3020.525856  	0.034179 
3022.454672  	0.034644 
3024.383488  	0.035183 
3026.312304  	0.035730 
3028.241120  	0.036113 
3030.169936  	0.036414 
3032.098752  	0.036967 
3034.027568  	0.037172 
3035.956384  	0.037275 
3037.885200  	0.037672 
3039.814016  	0.038062 
3041.742832  	0.038491 
3043.671648  	0.038846 
3045.600464  	0.039071 
3047.529280  	0.039281 
3049.458096  	0.039565 
3051.386912  	0.039766 
3053.315728  	0.039951 
3055.244544  	0.040341 
3057.173360  	0.040850 
3059.102176  	0.041042 
3061.030992  	0.041162 
3062.959808  	0.041446 
3064.888624  	0.041723 
3066.817440  	0.042052 
3068.746256  	0.042291 
3070.675072  	0.042423 
3072.603888  	0.042746 
3074.532704  	0.043227 
3076.461520  	0.043676 
3078.390336  	0.043847 
3080.319152  	0.044096 
3082.247968  	0.044531 
3084.176784  	0.044912 
3086.105600  	0.044958 
3088.034416  	0.045076 
3089.963232  	0.045511 
3091.892048  	0.045878 
3093.820864  	0.046034 
3095.749680  	0.046303 
3097.678496  	0.046382 
3099.607312  	0.046605 
3101.536128  	0.046900 
3103.464944  	0.047246 
3105.393760  	0.047557 
3107.322576  	0.047868 
3109.251392  	0.048075 
3111.180208  	0.048304 
3113.109024  	0.048434 
3115.037840  	0.048533 
3116.966656  	0.048697 
3118.895472  	0.048925 
3120.824288  	0.049226 
3122.753104  	0.049506 
3124.681920  	0.049704 
3126.610736  	0.049744 
3128.539552  	0.049841 
3130.468368  	0.049976 
3132.397184  	0.050120 
3134.326000  	0.050288 
3136.254816  	0.050458 
3138.183632  	0.050610 
3140.112448  	0.050624 
3142.041264  	0.050774 
3143.970080  	0.051081 
3145.898896  	0.051302 
3147.827712  	0.051374 
3149.756528  	0.051514 
3151.685344  	0.051905 
3153.614160  	0.052311 
3155.542976  	0.052343 
3157.471792  	0.052454 
3159.400608  	0.052992 
3161.329424  	0.053277 
3163.258240  	0.053536 
3165.187056  	0.053750 
3167.115872  	0.053787 
3169.044688  	0.053962 
3170.973504  	0.054179 
3172.902320  	0.054323 
3174.831136  	0.054444 
3176.759952  	0.054571 
3178.688768  	0.054759 
3180.617584  	0.054785 
3182.546400  	0.054611 
3184.475216  	0.054756 
3186.404032  	0.054954 
3188.332848  	0.055014 
3190.261664  	0.055267 
3192.190480  	0.055355 
3194.119296  	0.055164 
3196.048112  	0.055231 
3197.976928  	0.055514 
3199.905744  	0.055581 
3201.834560  	0.055562 
3203.763376  	0.055646 
3205.692192  	0.055570 
3207.621008  	0.055470 
3209.549824  	0.055310 
3211.478640  	0.055160 
3213.407456  	0.055052 
3215.336272  	0.055053 
3217.265088  	0.054946 
3219.193904  	0.054741 
3221.122720  	0.054438 
3223.051536  	0.054367 
3224.980352  	0.054326 
3226.909168  	0.054064 
3228.837984  	0.053832 
3230.766800  	0.053821 
3232.695616  	0.053783 
3234.624432  	0.053825 
3236.553248  	0.053732 
3238.482064  	0.053522 
3240.410880  	0.053372 
3242.339696  	0.053364 
3244.268512  	0.053343 
3246.197328  	0.053374 
3248.126144  	0.053359 
3250.054960  	0.053474 
3251.983776  	0.053379 
3253.912592  	0.053306 
3255.841408  	0.053381 
3257.770224  	0.053411 
3259.699040  	0.053396 
3261.627856  	0.053491 
3263.556672  	0.053494 
3265.485488  	0.053471 
3267.414304  	0.053696 
3269.343120  	0.053889 
3271.271936  	0.054007 
3273.200752  	0.054076 
3275.129568  	0.054252 
3277.058384  	0.054452 
3278.987200  	0.054473 
3280.916016  	0.054310 
3282.844832  	0.054374 
3284.773648  	0.054436 
3286.702464  	0.054462 
3288.631280  	0.054521 
3290.560096  	0.054714 
3292.488912  	0.055106 
3294.417728  	0.055228 
3296.346544  	0.055286 
3298.275360  	0.055394 
3300.204176  	0.055556 
3302.132992  	0.055655 
3304.061808  	0.055889 
3305.990624  	0.056094 
3307.919440  	0.056180 
3309.848256  	0.056319 
3311.777072  	0.056236 
3313.705888  	0.056389 
3315.634704  	0.056618 
3317.563520  	0.056839 
3319.492336  	0.056939 
3321.421152  	0.056988 
3323.349968  	0.057114 
3325.278784  	0.057340 
3327.207600  	0.057377 
3329.136416  	0.057473 
3331.065232  	0.057483 
3332.994048  	0.057581 
3334.922864  	0.057579 
3336.851680  	0.057498 
3338.780496  	0.057431 
3340.709312  	0.057286 
3342.638128  	0.057142 
3344.566944  	0.057157 
3346.495760  	0.056991 
3348.424576  	0.056708 
3350.353392  	0.056556 
3352.282208  	0.056394 
3354.211024  	0.056360 
3356.139840  	0.056332 
3358.068656  	0.056021 
3359.997472  	0.055794 
3361.926288  	0.055624 
3363.855104  	0.055264 
3365.783920  	0.054975 
3367.712736  	0.054945 
3369.641552  	0.054635 
3371.570368  	0.054253 
3373.499184  	0.053931 
3375.428000  	0.053675 
3377.356816  	0.053415 
3379.285632  	0.053224 
3381.214448  	0.053209 
3383.143264  	0.052912 
3385.072080  	0.052757 
3387.000896  	0.052485 
3388.929712  	0.052128 
3390.858528  	0.051746 
3392.787344  	0.051469 
3394.716160  	0.051101 
3396.644976  	0.050952 
3398.573792  	0.050807 
3400.502608  	0.050276 
3402.431424  	0.049894 
3404.360240  	0.049637 
3406.289056  	0.049322 
3408.217872  	0.049030 
3410.146688  	0.048738 
3412.075504  	0.048640 
3414.004320  	0.048477 
3415.933136  	0.047978 
3417.861952  	0.047543 
3419.790768  	0.047474 
3421.719584  	0.047243 
3423.648400  	0.046703 
3425.577216  	0.046329 
3427.506032  	0.046211 
3429.434848  	0.045799 
3431.363664  	0.045297 
3433.292480  	0.045057 
3435.221296  	0.044897 
3437.150112  	0.044593 
3439.078928  	0.044395 
3441.007744  	0.044226 
3442.936560  	0.043973 
3444.865376  	0.043460 
3446.794192  	0.042973 
3448.723008  	0.042624 
3450.651824  	0.042181 
3452.580640  	0.041881 
3454.509456  	0.041477 
3456.438272  	0.041095 
3458.367088  	0.040947 
3460.295904  	0.040739 
3462.224720  	0.040275 
3464.153536  	0.039708 
3466.082352  	0.039352 
3468.011168  	0.039005 
3469.939984  	0.038499 
3471.868800  	0.037822 
3473.797616  	0.037513 
3475.726432  	0.037287 
3477.655248  	0.036644 
3479.584064  	0.036131 
3481.512880  	0.035938 
3483.441696  	0.035510 
3485.370512  	0.034819 
3487.299328  	0.034460 
3489.228144  	0.034204 
3491.156960  	0.033593 
3493.085776  	0.033140 
3495.014592  	0.032905 
3496.943408  	0.032608 
3498.872224  	0.032227 
3500.801040  	0.032028 
3502.729856  	0.031694 
3504.658672  	0.031276 
3506.587488  	0.030330 
3508.516304  	0.029961 
3510.445120  	0.030107 
3512.373936  	0.029837 
3514.302752  	0.029442 
3516.231568  	0.029011 
3518.160384  	0.028534 
3520.089200  	0.028169 
3522.018016  	0.028125 
3523.946832  	0.028377 
3525.875648  	0.027898 
3527.804464  	0.027178 
3529.733280  	0.026770 
3531.662096  	0.026441 
3533.590912  	0.025951 
3535.519728  	0.025864 
3537.448544  	0.025851 
3539.377360  	0.025210 
3541.306176  	0.024530 
3543.234992  	0.024292 
3545.163808  	0.024860 
3547.092624  	0.024835 
3549.021440  	0.023740 
3550.950256  	0.023040 
3552.879072  	0.023255 
3554.807888  	0.023000 
3556.736704  	0.022374 
3558.665520  	0.022062 
3560.594336  	0.022123 
3562.523152  	0.021506 
3564.451968  	0.020928 
3566.380784  	0.021575 
3568.309600  	0.022222 
3570.238416  	0.020886 
3572.167232  	0.019646 
3574.096048  	0.019208 
3576.024864  	0.018747 
3577.953680  	0.018331 
3579.882496  	0.018261 
3581.811312  	0.017920 
3583.740128  	0.017078 
3585.668944  	0.016568 
3587.597760  	0.017790 
3589.526576  	0.017660 
3591.455392  	0.015781 
3593.384208  	0.015328 
3595.313024  	0.015248 
3597.241840  	0.014477 
3599.170656  	0.013616 
3601.099472  	0.013508 
3603.028288  	0.013258 
3604.957104  	0.012254 
3606.885920  	0.011830 
3608.814736  	0.012622 
3610.743552  	0.011899 
3612.672368  	0.011024 
3614.601184  	0.010876 
3616.530000  	0.009421 
3618.458816  	0.008947 
3620.387632  	0.009710 
3622.316448  	0.009042 
3624.245264  	0.007861 
3626.174080  	0.006163 
3628.102896  	0.005566 
3630.031712  	0.008004 
3631.960528  	0.007027 
3633.889344  	0.006141 
3635.818160  	0.005454 
3637.746976  	0.004920 
3639.675792  	0.005008 
3641.604608  	0.004633 
3643.533424  	0.003736 
3645.462240  	0.001659 
3647.391056  	0.000382 
3649.319872  	0.001170 
3651.248688  	0.003242 
3653.177504  	0.002013 
3655.106320  	0.000210 
3657.035136  	0.000902 
3658.963952  	0.000601 
3660.892768  	-0.000233 
3662.821584  	-0.000670 
3664.750400  	-0.001021 
3666.679216  	-0.002398 
3668.608032  	-0.003906 
3670.536848  	-0.002449 
3672.465664  	-0.002786 
3674.394480  	-0.005110 
3676.323296  	-0.002122 
3678.252112  	-0.000869 
3680.180928  	-0.000917 
3682.109744  	-0.001497 
3684.038560  	-0.002375 
3685.967376  	-0.004074 
3687.896192  	-0.005125 
3689.825008  	-0.003747 
3691.753824  	-0.002265 
3693.682640  	-0.001740 
3695.611456  	-0.001963 
3697.540272  	-0.001772 
3699.469088  	-0.002218 
3701.397904  	-0.001757 
3703.326720  	-0.000836 
3705.255536  	-0.001149 
3707.184352  	-0.002184 
3709.113168  	-0.003111 
3711.041984  	-0.002311 
3712.970800  	0.000057 
3714.899616  	0.000297 
3716.828432  	-0.000651 
3718.757248  	-0.001124 
3720.686064  	-0.001478 
3722.614880  	-0.000827 
3724.543696  	-0.000358 
3726.472512  	-0.000107 
3728.401328  	-0.000912 
3730.330144  	-0.003154 
3732.258960  	-0.003644 
3734.187776  	-0.002115 
3736.116592  	0.000550 
3738.045408  	0.000186 
3739.974224  	-0.001191 
3741.903040  	-0.002699 
3743.831856  	-0.002336 
3745.760672  	0.000626 
3747.689488  	-0.002334 
3749.618304  	-0.003759 
3751.547120  	-0.001714 
3753.475936  	0.000714 
3755.404752  	-0.000187 
3757.333568  	-0.001029 
3759.262384  	-0.000685 
3761.191200  	0.000377 
3763.120016  	-0.000337 
3765.048832  	-0.000681 
3766.977648  	-0.000660 
3768.906464  	-0.001087 
3770.835280  	0.000343 
3772.764096  	0.000616 
3774.692912  	-0.000116 
3776.621728  	-0.001032 
3778.550544  	-0.001327 
3780.479360  	-0.000041 
3782.408176  	-0.000242 
3784.336992  	-0.000486 
3786.265808  	0.000011 
3788.194624  	-0.000049 
3790.123440  	-0.000219 
3792.052256  	-0.000281 
3793.981072  	-0.001111 
3795.909888  	-0.001485 
3797.838704  	-0.001153 
3799.767520  	-0.002949 
3801.696336  	-0.001653 
3803.625152  	-0.000334 
3805.553968  	-0.001941 
3807.482784  	-0.000325 
3809.411600  	0.000528 
3811.340416  	-0.000069 
3813.269232  	-0.001447 
3815.198048  	-0.002337 
3817.126864  	-0.000943 
3819.055680  	-0.002655 
3820.984496  	-0.001986 
3822.913312  	0.000688 
3824.842128  	-0.000562 
3826.770944  	-0.000718 
3828.699760  	-0.000730 
3830.628576  	-0.001464 
3832.557392  	-0.001286 
3834.486208  	-0.001879 
3836.415024  	-0.002823 
3838.343840  	-0.001736 
3840.272656  	-0.000489 
3842.201472  	-0.000541 
3844.130288  	-0.000281 
3846.059104  	-0.000135 
3847.987920  	-0.000962 
3849.916736  	-0.002400 
3851.845552  	-0.004252 
3853.774368  	-0.000842 
3855.703184  	0.001397 
3857.632000  	0.000143 
3859.560816  	-0.000984 
3861.489632  	-0.001419 
3863.418448  	-0.001145 
3865.347264  	0.000022 
3867.276080  	-0.000877 
3869.204896  	-0.001443 
3871.133712  	0.000702 
3873.062528  	-0.000319 
3874.991344  	0.000287 
3876.920160  	-0.000339 
3878.848976  	-0.001439 
3880.777792  	0.000069 
3882.706608  	0.000135 
3884.635424  	-0.000800 
3886.564240  	0.000827 
3888.493056  	-0.000361 
3890.421872  	-0.001090 
3892.350688  	0.000399 
3894.279504  	0.000332 
3896.208320  	-0.000680 
3898.137136  	-0.001068 
3900.065952  	-0.000291 
3901.994768  	0.000089 
3903.923584  	0.000764 
3905.852400  	0.001445 
3907.781216  	0.000569 
3909.710032  	-0.000104 
3911.638848  	-0.000145 
3913.567664  	-0.000264 
3915.496480  	-0.000219 
3917.425296  	0.000824 
3919.354112  	0.000984 
3921.282928  	0.000601 
3923.211744  	0.000206 
3925.140560  	0.000705 
3927.069376  	0.000311 
3928.998192  	-0.000332 
3930.927008  	0.000139 
3932.855824  	0.001160 
3934.784640  	0.000797 
3936.713456  	0.000290 
3938.642272  	0.000303 
3940.571088  	-0.000003 
3942.499904  	0.000735 
3944.428720  	0.001053 
3946.357536  	0.000380 
3948.286352  	0.000595 
3950.215168  	0.000468 
3952.143984  	0.000076 
3954.072800  	-0.000028 
3956.001616  	0.000006 
3957.930432  	0.000104 
3959.859248  	0.000354 
3961.788064  	0.000573 
3963.716880  	0.000431 
3965.645696  	0.000082 
3967.574512  	0.000150 
3969.503328  	0.000207 
3971.432144  	0.000146 
3973.360960  	0.000159 
3975.289776  	0.000432 
3977.218592  	0.000493 
3979.147408  	0.000413 
3981.076224  	0.000287 
3983.005040  	0.000130 
3984.933856  	0.000086 
3986.862672  	0.000163 
3988.791488  	0.000163 
3990.720304  	0.000267 
3992.649120  	0.000278 
3994.577936  	0.000174 
3996.506752  	0.000038 
3998.435568  	0.000038 
4000.364384  	0.000064 