##TITLE=No Description
##DATA TYPE=INFRARED SPECTRUM
##XUNITS=1/CM
##YUNITS=Abs
399.264912  	0.603912 
401.193728  	0.603140 
403.122544  	0.593955 
405.051360  	0.570866 
406.980176  	0.565805 
408.908992  	0.565536 
410.837808  	0.571599 
412.766624  	0.571381 
414.695440  	0.571202 
416.624256  	0.562913 
418.553072  	0.565945 
420.481888  	0.559135 
422.410704  	0.556838 
424.339520  	0.542230 
426.268336  	0.539525 
428.197152  	0.534560 
430.125968  	0.529035 
432.054784  	0.523322 
433.983600  	0.524453 
435.912416  	0.513325 
437.841232  	0.509365 
439.770048  	0.511793 
441.698864  	0.515804 
443.627680  	0.513944 
445.556496  	0.512405 
447.485312  	0.508334 
449.414128  	0.506935 
451.342944  	0.503883 
453.271760  	0.505334 
455.200576  	0.500483 
457.129392  	0.500136 
459.058208  	0.498469 
460.987024  	0.498813 
462.915840  	0.498479 
464.844656  	0.500244 
466.773472  	0.498548 
468.702288  	0.498642 
470.631104  	0.494584 
472.559920  	0.495092 
474.488736  	0.494136 
476.417552  	0.496001 
478.346368  	0.493956 
480.275184  	0.492887 
482.204000  	0.489145 
484.132816  	0.490692 
486.061632  	0.491289 
487.990448  	0.490242 
489.919264  	0.486944 
491.848080  	0.487367 
493.776896  	0.486303 
495.705712  	0.485121 
497.634528  	0.481724 
499.563344  	0.481651 
501.492160  	0.479395 
503.420976  	0.477967 
505.349792  	0.476556 
507.278608  	0.478478 
509.207424  	0.478282 
511.136240  	0.480831 
513.065056  	0.482063 
514.993872  	0.481002 
516.922688  	0.476771 
518.851504  	0.478857 
520.780320  	0.477489 
522.709136  	0.477582 
524.637952  	0.475434 
526.566768  	0.473590 
528.495584  	0.472844 
530.424400  	0.472265 
532.353216  	0.468949 
534.282032  	0.465851 
536.210848  	0.461909 
538.139664  	0.459753 
540.068480  	0.455724 
541.997296  	0.450705 
543.926112  	0.446045 
545.854928  	0.444909 
547.783744  	0.441895 
549.712560  	0.438097 
551.641376  	0.433436 
553.570192  	0.431734 
555.499008  	0.429089 
557.427824  	0.426338 
559.356640  	0.423475 
561.285456  	0.420091 
563.214272  	0.415708 
565.143088  	0.414090 
567.071904  	0.411092 
569.000720  	0.407717 
570.929536  	0.404038 
572.858352  	0.400895 
574.787168  	0.397143 
576.715984  	0.394865 
578.644800  	0.392123 
580.573616  	0.389433 
582.502432  	0.385489 
584.431248  	0.383087 
586.360064  	0.381043 
588.288880  	0.378852 
590.217696  	0.376365 
592.146512  	0.375119 
594.075328  	0.372832 
596.004144  	0.370081 
597.932960  	0.368045 
599.861776  	0.367405 
601.790592  	0.366191 
603.719408  	0.365549 
605.648224  	0.363829 
607.577040  	0.362547 
609.505856  	0.361492 
611.434672  	0.360917 
613.363488  	0.359051 
615.292304  	0.357705 
617.221120  	0.355276 
619.149936  	0.353062 
621.078752  	0.350526 
623.007568  	0.348452 
624.936384  	0.346097 
626.865200  	0.345146 
628.794016  	0.343754 
630.722832  	0.342323 
632.651648  	0.341258 
634.580464  	0.340828 
636.509280  	0.340649 
638.438096  	0.339807 
640.366912  	0.337756 
642.295728  	0.336108 
644.224544  	0.333599 
646.153360  	0.330698 
648.082176  	0.327376 
650.010992  	0.324273 
651.939808  	0.321210 
653.868624  	0.318522 
655.797440  	0.314519 
657.726256  	0.311144 
659.655072  	0.308113 
661.583888  	0.305070 
663.512704  	0.302279 
665.441520  	0.299642 
667.370336  	0.294743 
669.299152  	0.291334 
671.227968  	0.290128 
673.156784  	0.287668 
675.085600  	0.285269 
677.014416  	0.283457 
678.943232  	0.281513 
680.872048  	0.279728 
682.800864  	0.278497 
684.729680  	0.277298 
686.658496  	0.274766 
688.587312  	0.272864 
690.516128  	0.271360 
692.444944  	0.269946 
694.373760  	0.268520 
696.302576  	0.267045 
698.231392  	0.264859 
700.160208  	0.262226 
702.089024  	0.259553 
704.017840  	0.258159 
705.946656  	0.256037 
707.875472  	0.253538 
709.804288  	0.251228 
711.733104  	0.249792 
713.661920  	0.248002 
715.590736  	0.246888 
717.519552  	0.246511 
719.448368  	0.246670 
721.377184  	0.247021 
723.306000  	0.246953 
725.234816  	0.246308 
727.163632  	0.244840 
729.092448  	0.242587 
731.021264  	0.240209 
732.950080  	0.237804 
734.878896  	0.235195 
736.807712  	0.232902 
738.736528  	0.231193 
740.665344  	0.229607 
742.594160  	0.228280 
744.522976  	0.226618 
746.451792  	0.225256 
748.380608  	0.224056 
750.309424  	0.223043 
752.238240  	0.222213 
754.167056  	0.221668 
756.095872  	0.220690 
758.024688  	0.219516 
759.953504  	0.218534 
761.882320  	0.217884 
763.811136  	0.217437 
765.739952  	0.216666 
767.668768  	0.215313 
769.597584  	0.214022 
771.526400  	0.213662 
773.455216  	0.214559 
775.384032  	0.215923 
777.312848  	0.218036 
779.241664  	0.220482 
781.170480  	0.220897 
783.099296  	0.218513 
785.028112  	0.214251 
786.956928  	0.208970 
788.885744  	0.204473 
790.814560  	0.201307 
792.743376  	0.199200 
794.672192  	0.197139 
796.601008  	0.195942 
798.529824  	0.194447 
800.458640  	0.191579 
802.387456  	0.188617 
804.316272  	0.186977 
806.245088  	0.186082 
808.173904  	0.185439 
810.102720  	0.184706 
812.031536  	0.184122 
813.960352  	0.183570 
815.889168  	0.182860 
817.817984  	0.182411 
819.746800  	0.182076 
821.675616  	0.181821 
823.604432  	0.181093 
825.533248  	0.179900 
827.462064  	0.178699 
829.390880  	0.177391 
831.319696  	0.176320 
833.248512  	0.174943 
835.177328  	0.173091 
837.106144  	0.170737 
839.034960  	0.168186 
840.963776  	0.165674 
842.892592  	0.163321 
844.821408  	0.160631 
846.750224  	0.158080 
848.679040  	0.156112 
850.607856  	0.154227 
852.536672  	0.152363 
854.465488  	0.150461 
856.394304  	0.148901 
858.323120  	0.147548 
860.251936  	0.146078 
862.180752  	0.144063 
864.109568  	0.142079 
866.038384  	0.140438 
867.967200  	0.138805 
869.896016  	0.137253 
871.824832  	0.135940 
873.753648  	0.135276 
875.682464  	0.135163 
877.611280  	0.134860 
879.540096  	0.134762 
881.468912  	0.135474 
883.397728  	0.135734 
885.326544  	0.135724 
887.255360  	0.135290 
889.184176  	0.134522 
891.112992  	0.133256 
893.041808  	0.131831 
894.970624  	0.130386 
896.899440  	0.128347 
898.828256  	0.125531 
900.757072  	0.122543 
902.685888  	0.120227 
904.614704  	0.118865 
906.543520  	0.118365 
908.472336  	0.119076 
910.401152  	0.120499 
912.329968  	0.122553 
914.258784  	0.124832 
916.187600  	0.126790 
918.116416  	0.128174 
920.045232  	0.128835 
921.974048  	0.128525 
923.902864  	0.127890 
925.831680  	0.126894 
927.760496  	0.125894 
929.689312  	0.125025 
931.618128  	0.124775 
933.546944  	0.124941 
935.475760  	0.124979 
937.404576  	0.124980 
939.333392  	0.125464 
941.262208  	0.126309 
943.191024  	0.127682 
945.119840  	0.130156 
947.048656  	0.133305 
948.977472  	0.137171 
950.906288  	0.141724 
952.835104  	0.146854 
954.763920  	0.152098 
956.692736  	0.157011 
958.621552  	0.161191 
960.550368  	0.163860 
962.479184  	0.165357 
964.408000  	0.164641 
966.336816  	0.161986 
968.265632  	0.157364 
970.194448  	0.151388 
972.123264  	0.144251 
974.052080  	0.136601 
975.980896  	0.128978 
977.909712  	0.121928 
979.838528  	0.116118 
981.767344  	0.111139 
983.696160  	0.107545 
985.624976  	0.105743 
987.553792  	0.105743 
989.482608  	0.107209 
991.411424  	0.110105 
993.340240  	0.114237 
995.269056  	0.119351 
997.197872  	0.124812 
999.126688  	0.130061 
1001.055504  	0.135447 
1002.984320  	0.140455 
1004.913136  	0.145205 
1006.841952  	0.149360 
1008.770768  	0.152855 
1010.699584  	0.155440 
1012.628400  	0.157126 
1014.557216  	0.157751 
1016.486032  	0.158077 
1018.414848  	0.158281 
1020.343664  	0.158482 
1022.272480  	0.158567 
1024.201296  	0.158020 
1026.130112  	0.155938 
1028.058928  	0.155245 
1029.987744  	0.157436 
1031.916560  	0.158845 
1033.845376  	0.159596 
1035.774192  	0.160131 
1037.703008  	0.161306 
1039.631824  	0.164907 
1041.560640  	0.169558 
1043.489456  	0.175755 
1045.418272  	0.183737 
1047.347088  	0.193739 
1049.275904  	0.204757 
1051.204720  	0.215840 
1053.133536  	0.225513 
1055.062352  	0.233607 
1056.991168  	0.238716 
1058.919984  	0.242919 
1060.848800  	0.245280 
1062.777616  	0.244462 
1064.706432  	0.239933 
1066.635248  	0.235653 
1068.564064  	0.233930 
1070.492880  	0.230452 
1072.421696  	0.224678 
1074.350512  	0.219091 
1076.279328  	0.214919 
1078.208144  	0.212440 
1080.136960  	0.210561 
1082.065776  	0.209036 
1083.994592  	0.207605 
1085.923408  	0.206423 
1087.852224  	0.204347 
1089.781040  	0.202004 
1091.709856  	0.198586 
1093.638672  	0.193458 
1095.567488  	0.186665 
1097.496304  	0.179654 
1099.425120  	0.171909 
1101.353936  	0.163655 
1103.282752  	0.155911 
1105.211568  	0.148235 
1107.140384  	0.140598 
1109.069200  	0.133101 
1110.998016  	0.126146 
1112.926832  	0.119892 
1114.855648  	0.113938 
1116.784464  	0.108016 
1118.713280  	0.102708 
1120.642096  	0.097773 
1122.570912  	0.092797 
1124.499728  	0.087976 
1126.428544  	0.083397 
1128.357360  	0.079214 
1130.286176  	0.075252 
1132.214992  	0.071879 
1134.143808  	0.069119 
1136.072624  	0.066512 
1138.001440  	0.063958 
1139.930256  	0.061576 
1141.859072  	0.059403 
1143.787888  	0.057314 
1145.716704  	0.055737 
1147.645520  	0.054617 
1149.574336  	0.053927 
1151.503152  	0.053235 
1153.431968  	0.052937 
1155.360784  	0.052899 
1157.289600  	0.053090 
1159.218416  	0.053607 
1161.147232  	0.054578 
1163.076048  	0.055387 
1165.004864  	0.056448 
1166.933680  	0.057401 
1168.862496  	0.058720 
1170.791312  	0.060388 
1172.720128  	0.062039 
1174.648944  	0.063858 
1176.577760  	0.065723 
1178.506576  	0.067599 
1180.435392  	0.069542 
1182.364208  	0.071516 
1184.293024  	0.073820 
1186.221840  	0.076198 
1188.150656  	0.078826 
1190.079472  	0.081739 
1192.008288  	0.085086 
1193.937104  	0.088842 
1195.865920  	0.093175 
1197.794736  	0.097642 
1199.723552  	0.102627 
1201.652368  	0.107888 
1203.581184  	0.113193 
1205.510000  	0.118308 
1207.438816  	0.123509 
1209.367632  	0.128479 
1211.296448  	0.132967 
1213.225264  	0.136937 
1215.154080  	0.140195 
1217.082896  	0.142843 
1219.011712  	0.144780 
1220.940528  	0.146611 
1222.869344  	0.147970 
1224.798160  	0.148539 
1226.726976  	0.148787 
1228.655792  	0.148842 
1230.584608  	0.148494 
1232.513424  	0.147663 
1234.442240  	0.145923 
1236.371056  	0.143796 
1238.299872  	0.141060 
1240.228688  	0.136370 
1242.157504  	0.131496 
1244.086320  	0.127295 
1246.015136  	0.121946 
1247.943952  	0.116102 
1249.872768  	0.110444 
1251.801584  	0.105354 
1253.730400  	0.100341 
1255.659216  	0.095593 
1257.588032  	0.090973 
1259.516848  	0.086671 
1261.445664  	0.082766 
1263.374480  	0.079419 
1265.303296  	0.076392 
1267.232112  	0.073964 
1269.160928  	0.072378 
1271.089744  	0.071499 
1273.018560  	0.071130 
1274.947376  	0.071246 
1276.876192  	0.071495 
1278.805008  	0.071176 
1280.733824  	0.070032 
1282.662640  	0.067817 
1284.591456  	0.064831 
1286.520272  	0.061806 
1288.449088  	0.059257 
1290.377904  	0.057142 
1292.306720  	0.055527 
1294.235536  	0.053545 
1296.164352  	0.050999 
1298.093168  	0.048115 
1300.021984  	0.045213 
1301.950800  	0.042619 
1303.879616  	0.040519 
1305.808432  	0.038936 
1307.737248  	0.037773 
1309.666064  	0.036689 
1311.594880  	0.036364 
1313.523696  	0.036352 
1315.452512  	0.036371 
1317.381328  	0.036753 
1319.310144  	0.037343 
1321.238960  	0.037766 
1323.167776  	0.038261 
1325.096592  	0.038686 
1327.025408  	0.038791 
1328.954224  	0.038352 
1330.883040  	0.037660 
1332.811856  	0.036696 
1334.740672  	0.036007 
1336.669488  	0.035666 
1338.598304  	0.035649 
1340.527120  	0.035054 
1342.455936  	0.033883 
1344.384752  	0.033577 
1346.313568  	0.034125 
1348.242384  	0.035100 
1350.171200  	0.036477 
1352.100016  	0.037910 
1354.028832  	0.039405 
1355.957648  	0.041043 
1357.886464  	0.042531 
1359.815280  	0.043782 
1361.744096  	0.045264 
1363.672912  	0.046395 
1365.601728  	0.046430 
1367.530544  	0.046502 
1369.459360  	0.046464 
1371.388176  	0.045516 
1373.316992  	0.044394 
1375.245808  	0.042935 
1377.174624  	0.041188 
1379.103440  	0.039348 
1381.032256  	0.037602 
1382.961072  	0.036358 
1384.889888  	0.035777 
1386.818704  	0.035845 
1388.747520  	0.035278 
1390.676336  	0.033412 
1392.605152  	0.030705 
1394.533968  	0.029941 
1396.462784  	0.032242 
1398.391600  	0.033022 
1400.320416  	0.033123 
1402.249232  	0.032792 
1404.178048  	0.033462 
1406.106864  	0.034537 
1408.035680  	0.035917 
1409.964496  	0.037713 
1411.893312  	0.039904 
1413.822128  	0.041825 
1415.750944  	0.043881 
1417.679760  	0.045298 
1419.608576  	0.046029 
1421.537392  	0.045623 
1423.466208  	0.045187 
1425.395024  	0.044389 
1427.323840  	0.042955 
1429.252656  	0.041572 
1431.181472  	0.040723 
1433.110288  	0.040291 
1435.039104  	0.040097 
1436.967920  	0.040765 
1438.896736  	0.041034 
1440.825552  	0.040971 
1442.754368  	0.041311 
1444.683184  	0.041261 
1446.612000  	0.041132 
1448.540816  	0.041191 
1450.469632  	0.041184 
1452.398448  	0.041219 
1454.327264  	0.041127 
1456.256080  	0.041408 
1458.184896  	0.042890 
1460.113712  	0.043204 
1462.042528  	0.043043 
1463.971344  	0.043011 
1465.900160  	0.044820 
1467.828976  	0.046621 
1469.757792  	0.048106 
1471.686608  	0.050343 
1473.615424  	0.054758 
1475.544240  	0.057383 
1477.473056  	0.058956 
1479.401872  	0.059350 
1481.330688  	0.059675 
1483.259504  	0.059364 
1485.188320  	0.058354 
1487.117136  	0.056795 
1489.045952  	0.055488 
1490.974768  	0.053387 
1492.903584  	0.050498 
1494.832400  	0.047508 
1496.761216  	0.044962 
1498.690032  	0.042922 
1500.618848  	0.041665 
1502.547664  	0.039887 
1504.476480  	0.037285 
1506.405296  	0.036613 
1508.334112  	0.038997 
1510.262928  	0.038138 
1512.191744  	0.036839 
1514.120560  	0.035776 
1516.049376  	0.035707 
1517.978192  	0.035779 
1519.907008  	0.035713 
1521.835824  	0.037550 
1523.764640  	0.040014 
1525.693456  	0.042360 
1527.622272  	0.044568 
1529.551088  	0.045642 
1531.479904  	0.045925 
1533.408720  	0.045970 
1535.337536  	0.045770 
1537.266352  	0.043279 
1539.195168  	0.039641 
1541.123984  	0.038698 
1543.052800  	0.039817 
1544.981616  	0.039853 
1546.910432  	0.038721 
1548.839248  	0.038049 
1550.768064  	0.038172 
1552.696880  	0.037265 
1554.625696  	0.037294 
1556.554512  	0.036031 
1558.483328  	0.035503 
1560.412144  	0.040789 
1562.340960  	0.042716 
1564.269776  	0.043891 
1566.198592  	0.046516 
1568.127408  	0.048276 
1570.056224  	0.052121 
1571.985040  	0.055560 
1573.913856  	0.056471 
1575.842672  	0.057049 
1577.771488  	0.059530 
1579.700304  	0.059837 
1581.629120  	0.059872 
1583.557936  	0.060107 
1585.486752  	0.061318 
1587.415568  	0.063331 
1589.344384  	0.066473 
1591.273200  	0.069898 
1593.202016  	0.073979 
1595.130832  	0.077904 
1597.059648  	0.081741 
1598.988464  	0.084595 
1600.917280  	0.086984 
1602.846096  	0.088347 
1604.774912  	0.089066 
1606.703728  	0.088653 
1608.632544  	0.088366 
1610.561360  	0.087975 
1612.490176  	0.087882 
1614.418992  	0.087077 
1616.347808  	0.087791 
1618.276624  	0.091303 
1620.205440  	0.094527 
1622.134256  	0.097367 
1624.063072  	0.103199 
1625.991888  	0.108248 
1627.920704  	0.113783 
1629.849520  	0.120223 
1631.778336  	0.125444 
1633.707152  	0.128637 
1635.635968  	0.134057 
1637.564784  	0.140968 
1639.493600  	0.144804 
1641.422416  	0.147725 
1643.351232  	0.149273 
1645.280048  	0.149251 
1647.208864  	0.150926 
1649.137680  	0.152052 
1651.066496  	0.150265 
1652.995312  	0.148441 
1654.924128  	0.151398 
1656.852944  	0.150669 
1658.781760  	0.149517 
1660.710576  	0.148000 
1662.639392  	0.146968 
1664.568208  	0.146678 
1666.497024  	0.145613 
1668.425840  	0.143869 
1670.354656  	0.143620 
1672.283472  	0.143691 
1674.212288  	0.143206 
1676.141104  	0.144198 
1678.069920  	0.145014 
1679.998736  	0.145582 
1681.927552  	0.145208 
1683.856368  	0.144672 
1685.785184  	0.147149 
1687.714000  	0.147000 
1689.642816  	0.146053 
1691.571632  	0.144254 
1693.500448  	0.141557 
1695.429264  	0.138114 
1697.358080  	0.135355 
1699.286896  	0.131434 
1701.215712  	0.127977 
1703.144528  	0.124854 
1705.073344  	0.120524 
1707.002160  	0.116072 
1708.930976  	0.111914 
1710.859792  	0.107145 
1712.788608  	0.101935 
1714.717424  	0.096400 
1716.646240  	0.090444 
1718.575056  	0.085191 
1720.503872  	0.080314 
1722.432688  	0.075461 
1724.361504  	0.070041 
1726.290320  	0.064940 
1728.219136  	0.060067 
1730.147952  	0.055521 
1732.076768  	0.050530 
1734.005584  	0.045628 
1735.934400  	0.041246 
1737.863216  	0.037593 
1739.792032  	0.033191 
1741.720848  	0.030454 
1743.649664  	0.028015 
1745.578480  	0.025097 
1747.507296  	0.022287 
1749.436112  	0.020849 
1751.364928  	0.020034 
1753.293744  	0.018622 
1755.222560  	0.016785 
1757.151376  	0.016223 
1759.080192  	0.015207 
1761.009008  	0.014576 
1762.937824  	0.014048 
1764.866640  	0.013573 
1766.795456  	0.013011 
1768.724272  	0.012840 
1770.653088  	0.011192 
1772.581904  	0.010969 
1774.510720  	0.011722 
1776.439536  	0.011923 
1778.368352  	0.011546 
1780.297168  	0.011583 
1782.225984  	0.011328 
1784.154800  	0.011246 
1786.083616  	0.011215 
1788.012432  	0.010815 
1789.941248  	0.010187 
1791.870064  	0.010375 
1793.798880  	0.010554 
1795.727696  	0.010683 
1797.656512  	0.010046 
1799.585328  	0.009868 
1801.514144  	0.010189 
1803.442960  	0.009865 
1805.371776  	0.009312 
1807.300592  	0.009327 
1809.229408  	0.008930 
1811.158224  	0.009122 
1813.087040  	0.009108 
1815.015856  	0.008768 
1816.944672  	0.008621 
1818.873488  	0.008961 
1820.802304  	0.008959 
1822.731120  	0.008727 
1824.659936  	0.008690 
1826.588752  	0.008984 
1828.517568  	0.008419 
1830.446384  	0.009019 
1832.375200  	0.009135 
1834.304016  	0.008727 
1836.232832  	0.008450 
1838.161648  	0.008776 
1840.090464  	0.008621 
1842.019280  	0.008310 
1843.948096  	0.008090 
1845.876912  	0.008816 
1847.805728  	0.008856 
1849.734544  	0.008819 
1851.663360  	0.008423 
1853.592176  	0.008586 
1855.520992  	0.008587 
1857.449808  	0.008911 
1859.378624  	0.008737 
1861.307440  	0.008666 
1863.236256  	0.008415 
1865.165072  	0.008375 
1867.093888  	0.008235 
1869.022704  	0.009211 
1870.951520  	0.009127 
1872.880336  	0.008710 
1874.809152  	0.008318 
1876.737968  	0.008372 
1878.666784  	0.008300 
1880.595600  	0.008535 
1882.524416  	0.008468 
1884.453232  	0.008365 
1886.382048  	0.008150 
1888.310864  	0.008258 
1890.239680  	0.008448 
1892.168496  	0.008417 
1894.097312  	0.008156 
1896.026128  	0.008390 
1897.954944  	0.007974 
1899.883760  	0.008052 
1901.812576  	0.007869 
1903.741392  	0.007922 
1905.670208  	0.007693 
1907.599024  	0.007829 
1909.527840  	0.007755 
1911.456656  	0.008001 
1913.385472  	0.008050 
1915.314288  	0.008383 
1917.243104  	0.008304 
1919.171920  	0.008399 
1921.100736  	0.008220 
1923.029552  	0.008952 
1924.958368  	0.008070 
1926.887184  	0.007956 
1928.816000  	0.007735 
1930.744816  	0.007377 
1932.673632  	0.007040 
1934.602448  	0.007772 
1936.531264  	0.008037 
1938.460080  	0.007982 
1940.388896  	0.008086 
1942.317712  	0.008143 
1944.246528  	0.007652 
1946.175344  	0.008175 
1948.104160  	0.007537 
1950.032976  	0.007951 
1951.961792  	0.008419 
1953.890608  	0.008028 
1955.819424  	0.006983 
1957.748240  	0.007629 
1959.677056  	0.008314 
1961.605872  	0.008897 
1963.534688  	0.008358 
1965.463504  	0.008840 
1967.392320  	0.008160 
1969.321136  	0.008028 
1971.249952  	0.008567 
1973.178768  	0.009532 
1975.107584  	0.008072 
1977.036400  	0.007239 
1978.965216  	0.008789 
1980.894032  	0.009350 
1982.822848  	0.008331 
1984.751664  	0.009036 
1986.680480  	0.008796 
1988.609296  	0.009091 
1990.538112  	0.009737 
1992.466928  	0.010369 
1994.395744  	0.009375 
1996.324560  	0.008852 
1998.253376  	0.008286 
2000.182192  	0.008105 
2002.111008  	0.007699 
2004.039824  	0.007865 
2005.968640  	0.007583 
2007.897456  	0.008733 
2009.826272  	0.008577 
2011.755088  	0.007105 
2013.683904  	0.006872 
2015.612720  	0.008031 
2017.541536  	0.009101 
2019.470352  	0.009110 
2021.399168  	0.008400 
2023.327984  	0.009539 
2025.256800  	0.008480 
2027.185616  	0.007313 
2029.114432  	0.007539 
2031.043248  	0.009065 
2032.972064  	0.009024 
2034.900880  	0.010162 
2036.829696  	0.010264 
2038.758512  	0.009603 
2040.687328  	0.008926 
2042.616144  	0.008700 
2044.544960  	0.009336 
2046.473776  	0.010265 
2048.402592  	0.009730 
2050.331408  	0.010261 
2052.260224  	0.009535 
2054.189040  	0.009053 
2056.117856  	0.008437 
2058.046672  	0.008558 
2059.975488  	0.008792 
2061.904304  	0.009249 
2063.833120  	0.009721 
2065.761936  	0.010005 
2067.690752  	0.009094 
2069.619568  	0.008343 
2071.548384  	0.007852 
2073.477200  	0.008470 
2075.406016  	0.009283 
2077.334832  	0.009480 
2079.263648  	0.008699 
2081.192464  	0.008563 
2083.121280  	0.009064 
2085.050096  	0.009277 
2086.978912  	0.009031 
2088.907728  	0.009121 
2090.836544  	0.008428 
2092.765360  	0.007944 
2094.694176  	0.007937 
2096.622992  	0.008282 
2098.551808  	0.008244 
2100.480624  	0.008209 
2102.409440  	0.008224 
2104.338256  	0.008745 
2106.267072  	0.008680 
2108.195888  	0.008789 
2110.124704  	0.009211 
2112.053520  	0.009622 
2113.982336  	0.009122 
2115.911152  	0.008974 
2117.839968  	0.008733 
2119.768784  	0.008194 
2121.697600  	0.007570 
2123.626416  	0.007197 
2125.555232  	0.007037 
2127.484048  	0.007289 
2129.412864  	0.007100 
2131.341680  	0.006460 
2133.270496  	0.006582 
2135.199312  	0.007264 
2137.128128  	0.007795 
2139.056944  	0.007869 
2140.985760  	0.007011 
2142.914576  	0.007580 
2144.843392  	0.007646 
2146.772208  	0.007972 
2148.701024  	0.007921 
2150.629840  	0.008059 
2152.558656  	0.007741 
2154.487472  	0.007114 
2156.416288  	0.006151 
2158.345104  	0.008620 
2160.273920  	0.011602 
2162.202736  	0.011544 
2164.131552  	0.010452 
2166.060368  	0.011605 
2167.989184  	0.010550 
2169.918000  	0.009879 
2171.846816  	0.009814 
2173.775632  	0.009702 
2175.704448  	0.010031 
2177.633264  	0.010227 
2179.562080  	0.009204 
2181.490896  	0.008955 
2183.419712  	0.008938 
2185.348528  	0.010058 
2187.277344  	0.009676 
2189.206160  	0.009334 
2191.134976  	0.010547 
2193.063792  	0.011953 
2194.992608  	0.011722 
2196.921424  	0.010704 
2198.850240  	0.010653 
2200.779056  	0.010427 
2202.707872  	0.009833 
2204.636688  	0.010090 
2206.565504  	0.010582 
2208.494320  	0.011402 
2210.423136  	0.009925 
2212.351952  	0.009406 
2214.280768  	0.009839 
2216.209584  	0.009814 
2218.138400  	0.009958 
2220.067216  	0.010452 
2221.996032  	0.010135 
2223.924848  	0.009687 
2225.853664  	0.009504 
2227.782480  	0.009807 
2229.711296  	0.010138 
2231.640112  	0.010102 
2233.568928  	0.009906 
2235.497744  	0.010070 
2237.426560  	0.009484 
2239.355376  	0.009477 
2241.284192  	0.009211 
2243.213008  	0.009502 
2245.141824  	0.009741 
2247.070640  	0.009643 
2248.999456  	0.009552 
2250.928272  	0.009720 
2252.857088  	0.009607 
2254.785904  	0.009457 
2256.714720  	0.009970 
2258.643536  	0.010208 
2260.572352  	0.009817 
2262.501168  	0.009850 
2264.429984  	0.009695 
2266.358800  	0.010048 
2268.287616  	0.009856 
2270.216432  	0.009595 
2272.145248  	0.009560 
2274.074064  	0.009817 
2276.002880  	0.009880 
2277.931696  	0.010476 
2279.860512  	0.010869 
2281.789328  	0.010979 
2283.718144  	0.010769 
2285.646960  	0.010797 
2287.575776  	0.010962 
2289.504592  	0.010763 
2291.433408  	0.010282 
2293.362224  	0.010219 
2295.291040  	0.010250 
2297.219856  	0.010481 
2299.148672  	0.010555 
2301.077488  	0.010554 
2303.006304  	0.010633 
2304.935120  	0.010566 
2306.863936  	0.010395 
2308.792752  	0.010313 
2310.721568  	0.010131 
2312.650384  	0.009685 
2314.579200  	0.009137 
2316.508016  	0.008812 
2318.436832  	0.007983 
2320.365648  	0.007261 
2322.294464  	0.006943 
2324.223280  	0.005952 
2326.152096  	0.003989 
2328.080912  	0.002558 
2330.009728  	0.001814 
2331.938544  	0.001239 
2333.867360  	-0.000132 
2335.796176  	-0.001041 
2337.724992  	-0.001503 
2339.653808  	-0.001488 
2341.582624  	-0.001009 
2343.511440  	0.000492 
2345.440256  	0.002577 
2347.369072  	0.005022 
2349.297888  	0.005029 
2351.226704  	0.002697 
2353.155520  	0.000143 
2355.084336  	-0.002184 
2357.013152  	-0.003936 
2358.941968  	-0.004827 
2360.870784  	-0.005579 
2362.799600  	-0.005198 
2364.728416  	-0.003634 
2366.657232  	-0.001546 
2368.586048  	0.000158 
2370.514864  	0.002431 
2372.443680  	0.004724 
2374.372496  	0.006865 
2376.301312  	0.008469 
2378.230128  	0.009983 
2380.158944  	0.010593 
2382.087760  	0.010647 
2384.016576  	0.010907 
2385.945392  	0.010997 
2387.874208  	0.010514 
2389.803024  	0.010234 
2391.731840  	0.010123 
2393.660656  	0.010169 
2395.589472  	0.010304 
2397.518288  	0.010417 
2399.447104  	0.010294 
2401.375920  	0.010096 
2403.304736  	0.010231 
2405.233552  	0.010568 
2407.162368  	0.010835 
2409.091184  	0.010899 
2411.020000  	0.010780 
2412.948816  	0.010889 
2414.877632  	0.010830 
2416.806448  	0.010871 
2418.735264  	0.011090 
2420.664080  	0.011067 
2422.592896  	0.010868 
2424.521712  	0.010937 
2426.450528  	0.010964 
2428.379344  	0.010790 
2430.308160  	0.010943 
2432.236976  	0.011130 
2434.165792  	0.011232 
2436.094608  	0.011633 
2438.023424  	0.011891 
2439.952240  	0.011954 
2441.881056  	0.011975 
2443.809872  	0.011962 
2445.738688  	0.011878 
2447.667504  	0.011967 
2449.596320  	0.012070 
2451.525136  	0.012123 
2453.453952  	0.012123 
2455.382768  	0.012337 
2457.311584  	0.012505 
2459.240400  	0.012487 
2461.169216  	0.012300 
2463.098032  	0.012244 
2465.026848  	0.012162 
2466.955664  	0.011972 
2468.884480  	0.011902 
2470.813296  	0.012177 
2472.742112  	0.012012 
2474.670928  	0.012052 
2476.599744  	0.012186 
2478.528560  	0.012292 
2480.457376  	0.012543 
2482.386192  	0.012517 
2484.315008  	0.012560 
2486.243824  	0.012823 
2488.172640  	0.012606 
2490.101456  	0.012594 
2492.030272  	0.013103 
2493.959088  	0.013143 
2495.887904  	0.012855 
2497.816720  	0.012976 
2499.745536  	0.013039 
2501.674352  	0.013121 
2503.603168  	0.013180 
2505.531984  	0.013181 
2507.460800  	0.013160 
2509.389616  	0.013156 
2511.318432  	0.013091 
2513.247248  	0.013192 
2515.176064  	0.013271 
2517.104880  	0.013649 
2519.033696  	0.013855 
2520.962512  	0.013709 
2522.891328  	0.013753 
2524.820144  	0.013863 
2526.748960  	0.013842 
2528.677776  	0.013970 
2530.606592  	0.014013 
2532.535408  	0.014029 
2534.464224  	0.014017 
2536.393040  	0.013952 
2538.321856  	0.013828 
2540.250672  	0.013987 
2542.179488  	0.014071 
2544.108304  	0.014271 
2546.037120  	0.014300 
2547.965936  	0.014474 
2549.894752  	0.014627 
2551.823568  	0.014796 
2553.752384  	0.014886 
2555.681200  	0.014898 
2557.610016  	0.014849 
2559.538832  	0.014704 
2561.467648  	0.014800 
2563.396464  	0.015235 
2565.325280  	0.015434 
2567.254096  	0.015343 
2569.182912  	0.015255 
2571.111728  	0.015160 
2573.040544  	0.014907 
2574.969360  	0.014868 
2576.898176  	0.015222 
2578.826992  	0.015543 
2580.755808  	0.015494 
2582.684624  	0.015548 
2584.613440  	0.015513 
2586.542256  	0.015643 
2588.471072  	0.015939 
2590.399888  	0.016005 
2592.328704  	0.015976 
2594.257520  	0.016056 
2596.186336  	0.016347 
2598.115152  	0.016424 
2600.043968  	0.016279 
2601.972784  	0.016311 
2603.901600  	0.016408 
2605.830416  	0.016567 
2607.759232  	0.016404 
2609.688048  	0.016395 
2611.616864  	0.016534 
2613.545680  	0.016695 
2615.474496  	0.016856 
2617.403312  	0.016997 
2619.332128  	0.017193 
2621.260944  	0.017276 
2623.189760  	0.017158 
2625.118576  	0.017206 
2627.047392  	0.017376 
2628.976208  	0.017685 
2630.905024  	0.017827 
2632.833840  	0.018006 
2634.762656  	0.018124 
2636.691472  	0.018097 
2638.620288  	0.017990 
2640.549104  	0.018119 
2642.477920  	0.018305 
2644.406736  	0.018344 
2646.335552  	0.018495 
2648.264368  	0.018652 
2650.193184  	0.018650 
2652.122000  	0.018705 
2654.050816  	0.018837 
2655.979632  	0.018905 
2657.908448  	0.018938 
2659.837264  	0.018984 
2661.766080  	0.018866 
2663.694896  	0.018888 
2665.623712  	0.018897 
2667.552528  	0.018853 
2669.481344  	0.019012 
2671.410160  	0.019255 
2673.338976  	0.019297 
2675.267792  	0.019446 
2677.196608  	0.019674 
2679.125424  	0.019780 
2681.054240  	0.019715 
2682.983056  	0.019729 
2684.911872  	0.019928 
2686.840688  	0.020092 
2688.769504  	0.020180 
2690.698320  	0.020249 
2692.627136  	0.020323 
2694.555952  	0.020313 
2696.484768  	0.020244 
2698.413584  	0.020386 
2700.342400  	0.020394 
2702.271216  	0.020467 
2704.200032  	0.020820 
2706.128848  	0.020965 
2708.057664  	0.020975 
2709.986480  	0.021042 
2711.915296  	0.021184 
2713.844112  	0.021247 
2715.772928  	0.021293 
2717.701744  	0.021385 
2719.630560  	0.021411 
2721.559376  	0.021403 
2723.488192  	0.021527 
2725.417008  	0.021729 
2727.345824  	0.021908 
2729.274640  	0.021970 
2731.203456  	0.021945 
2733.132272  	0.022007 
2735.061088  	0.022166 
2736.989904  	0.022242 
2738.918720  	0.022220 
2740.847536  	0.022267 
2742.776352  	0.022360 
2744.705168  	0.022437 
2746.633984  	0.022535 
2748.562800  	0.022757 
2750.491616  	0.022899 
2752.420432  	0.022800 
2754.349248  	0.022804 
2756.278064  	0.022884 
2758.206880  	0.022857 
2760.135696  	0.023016 
2762.064512  	0.023185 
2763.993328  	0.023261 
2765.922144  	0.023202 
2767.850960  	0.023187 
2769.779776  	0.023230 
2771.708592  	0.023299 
2773.637408  	0.023279 
2775.566224  	0.023323 
2777.495040  	0.023303 
2779.423856  	0.023410 
2781.352672  	0.023506 
2783.281488  	0.023538 
2785.210304  	0.023512 
2787.139120  	0.023690 
2789.067936  	0.023916 
2790.996752  	0.024024 
2792.925568  	0.024093 
2794.854384  	0.024203 
2796.783200  	0.024241 
2798.712016  	0.024150 
2800.640832  	0.024186 
2802.569648  	0.024365 
2804.498464  	0.024414 
2806.427280  	0.024445 
2808.356096  	0.024687 
2810.284912  	0.024951 
2812.213728  	0.024913 
2814.142544  	0.024812 
2816.071360  	0.024840 
2818.000176  	0.024776 
2819.928992  	0.024677 
2821.857808  	0.024675 
2823.786624  	0.024743 
2825.715440  	0.024751 
2827.644256  	0.024623 
2829.573072  	0.024602 
2831.501888  	0.024468 
2833.430704  	0.024264 
2835.359520  	0.024135 
2837.288336  	0.024027 
2839.217152  	0.023949 
2841.145968  	0.023732 
2843.074784  	0.023474 
2845.003600  	0.023413 
2846.932416  	0.023557 
2848.861232  	0.023447 
2850.790048  	0.023073 
2852.718864  	0.022684 
2854.647680  	0.022244 
2856.576496  	0.021842 
2858.505312  	0.021412 
2860.434128  	0.021097 
2862.362944  	0.020705 
2864.291760  	0.020089 
2866.220576  	0.019502 
2868.149392  	0.019383 
2870.078208  	0.019481 
2872.007024  	0.019488 
2873.935840  	0.019589 
2875.864656  	0.019792 
2877.793472  	0.019875 
2879.722288  	0.019672 
2881.651104  	0.019299 
2883.579920  	0.019063 
2885.508736  	0.019059 
2887.437552  	0.019227 
2889.366368  	0.019229 
2891.295184  	0.018967 
2893.224000  	0.018780 
2895.152816  	0.018926 
2897.081632  	0.018619 
2899.010448  	0.017439 
2900.939264  	0.016558 
2902.868080  	0.017391 
2904.796896  	0.018387 
2906.725712  	0.018901 
2908.654528  	0.019239 
2910.583344  	0.019572 
2912.512160  	0.020433 
2914.440976  	0.021488 
2916.369792  	0.022047 
2918.298608  	0.022477 
2920.227424  	0.022907 
2922.156240  	0.023432 
2924.085056  	0.023882 
2926.013872  	0.024439 
2927.942688  	0.025208 
2929.871504  	0.025852 
2931.800320  	0.026342 
2933.729136  	0.026772 
2935.657952  	0.027029 
2937.586768  	0.027246 
2939.515584  	0.027247 
2941.444400  	0.027112 
2943.373216  	0.027174 
2945.302032  	0.027402 
2947.230848  	0.027506 
2949.159664  	0.027225 
2951.088480  	0.026682 
2953.017296  	0.026276 
2954.946112  	0.025742 
2956.874928  	0.025033 
2958.803744  	0.024347 
2960.732560  	0.023804 
2962.661376  	0.023459 
2964.590192  	0.022715 
2966.519008  	0.021778 
2968.447824  	0.020914 
2970.376640  	0.020324 
2972.305456  	0.019905 
2974.234272  	0.019875 
2976.163088  	0.019988 
2978.091904  	0.020030 
2980.020720  	0.020047 
2981.949536  	0.020101 
2983.878352  	0.019630 
2985.807168  	0.018781 
2987.735984  	0.018364 
2989.664800  	0.018828 
2991.593616  	0.020846 
2993.522432  	0.021928 
2995.451248  	0.022311 
2997.380064  	0.022992 
2999.308880  	0.023805 
3001.237696  	0.024768 
3003.166512  	0.025731 
3005.095328  	0.026682 
3007.024144  	0.027594 
3008.952960  	0.028509 
3010.881776  	0.029529 
3012.810592  	0.030382 
3014.739408  	0.031162 
3016.668224  	0.032080 
3018.597040  	0.032933 
3020.525856  	0.033476 
3022.454672  	0.034165 
3024.383488  	0.034944 
3026.312304  	0.035532 
3028.241120  	0.036094 
3030.169936  	0.036565 
3032.098752  	0.037169 
3034.027568  	0.037626 
3035.956384  	0.037817 
3037.885200  	0.038108 
3039.814016  	0.038675 
3041.742832  	0.039274 
3043.671648  	0.039668 
3045.600464  	0.039978 
3047.529280  	0.040162 
3049.458096  	0.040379 
3051.386912  	0.040498 
3053.315728  	0.040660 
3055.244544  	0.041161 
3057.173360  	0.041749 
3059.102176  	0.041999 
3061.030992  	0.042059 
3062.959808  	0.042258 
3064.888624  	0.042633 
3066.817440  	0.043052 
3068.746256  	0.043201 
3070.675072  	0.043416 
3072.603888  	0.043839 
3074.532704  	0.044237 
3076.461520  	0.044599 
3078.390336  	0.044783 
3080.319152  	0.045033 
3082.247968  	0.045424 
3084.176784  	0.045685 
3086.105600  	0.045867 
3088.034416  	0.046139 
3089.963232  	0.046520 
3091.892048  	0.046918 
3093.820864  	0.047026 
3095.749680  	0.047274 
3097.678496  	0.047478 
3099.607312  	0.047758 
3101.536128  	0.048054 
3103.464944  	0.048300 
3105.393760  	0.048565 
3107.322576  	0.048926 
3109.251392  	0.049164 
3111.180208  	0.049357 
3113.109024  	0.049556 
3115.037840  	0.049615 
3116.966656  	0.049807 
3118.895472  	0.050075 
3120.824288  	0.050223 
3122.753104  	0.050445 
3124.681920  	0.050577 
3126.610736  	0.050590 
3128.539552  	0.050723 
3130.468368  	0.050885 
3132.397184  	0.051124 
3134.326000  	0.051308 
3136.254816  	0.051422 
3138.183632  	0.051639 
3140.112448  	0.051762 
3142.041264  	0.051845 
3143.970080  	0.052151 
3145.898896  	0.052314 
3147.827712  	0.052504 
3149.756528  	0.052748 
3151.685344  	0.052942 
3153.614160  	0.053265 
3155.542976  	0.053441 
3157.471792  	0.053442 
3159.400608  	0.053964 
3161.329424  	0.054562 
3163.258240  	0.054838 
3165.187056  	0.054974 
3167.115872  	0.055020 
3169.044688  	0.055072 
3170.973504  	0.055197 
3172.902320  	0.055413 
3174.831136  	0.055447 
3176.759952  	0.055625 
3178.688768  	0.055881 
3180.617584  	0.055979 
3182.546400  	0.055960 
3184.475216  	0.056180 
3186.404032  	0.056282 
3188.332848  	0.056238 
3190.261664  	0.056343 
3192.190480  	0.056346 
3194.119296  	0.056192 
3196.048112  	0.056306 
3197.976928  	0.056680 
3199.905744  	0.056711 
3201.834560  	0.056571 
3203.763376  	0.056558 
3205.692192  	0.056552 
3207.621008  	0.056415 
3209.549824  	0.056187 
3211.478640  	0.055993 
3213.407456  	0.055899 
3215.336272  	0.055996 
3217.265088  	0.055938 
3219.193904  	0.055586 
3221.122720  	0.055296 
3223.051536  	0.055146 
3224.980352  	0.055058 
3226.909168  	0.054972 
3228.837984  	0.054826 
3230.766800  	0.054888 
3232.695616  	0.054989 
3234.624432  	0.054856 
3236.553248  	0.054594 
3238.482064  	0.054458 
3240.410880  	0.054515 
3242.339696  	0.054381 
3244.268512  	0.054398 
3246.197328  	0.054344 
3248.126144  	0.054176 
3250.054960  	0.054179 
3251.983776  	0.054099 
3253.912592  	0.054118 
3255.841408  	0.054269 
3257.770224  	0.054406 
3259.699040  	0.054515 
3261.627856  	0.054491 
3263.556672  	0.054458 
3265.485488  	0.054497 
3267.414304  	0.054522 
3269.343120  	0.054710 
3271.271936  	0.054914 
3273.200752  	0.055165 
3275.129568  	0.055334 
3277.058384  	0.055298 
3278.987200  	0.055443 
3280.916016  	0.055495 
3282.844832  	0.055377 
3284.773648  	0.055443 
3286.702464  	0.055534 
3288.631280  	0.055637 
3290.560096  	0.055903 
3292.488912  	0.056034 
3294.417728  	0.055962 
3296.346544  	0.056018 
3298.275360  	0.056194 
3300.204176  	0.056502 
3302.132992  	0.056621 
3304.061808  	0.056812 
3305.990624  	0.057081 
3307.919440  	0.057190 
3309.848256  	0.057261 
3311.777072  	0.057314 
3313.705888  	0.057553 
3315.634704  	0.057882 
3317.563520  	0.058158 
3319.492336  	0.058225 
3321.421152  	0.058117 
3323.349968  	0.058226 
3325.278784  	0.058517 
3327.207600  	0.058617 
3329.136416  	0.058647 
3331.065232  	0.058495 
3332.994048  	0.058502 
3334.922864  	0.058587 
3336.851680  	0.058447 
3338.780496  	0.058276 
3340.709312  	0.058199 
3342.638128  	0.058159 
3344.566944  	0.057983 
3346.495760  	0.057713 
3348.424576  	0.057633 
3350.353392  	0.057666 
3352.282208  	0.057495 
3354.211024  	0.057423 
3356.139840  	0.057349 
3358.068656  	0.056960 
3359.997472  	0.056627 
3361.926288  	0.056364 
3363.855104  	0.056055 
3365.783920  	0.055912 
3367.712736  	0.055856 
3369.641552  	0.055464 
3371.570368  	0.055030 
3373.499184  	0.054901 
3375.428000  	0.054550 
3377.356816  	0.054273 
3379.285632  	0.054186 
3381.214448  	0.054012 
3383.143264  	0.053805 
3385.072080  	0.053781 
3387.000896  	0.053374 
3388.929712  	0.052916 
3390.858528  	0.052660 
3392.787344  	0.052542 
3394.716160  	0.052073 
3396.644976  	0.051734 
3398.573792  	0.051402 
3400.502608  	0.050987 
3402.431424  	0.050656 
3404.360240  	0.050392 
3406.289056  	0.050195 
3408.217872  	0.049896 
3410.146688  	0.049576 
3412.075504  	0.049588 
3414.004320  	0.049386 
3415.933136  	0.048820 
3417.861952  	0.048428 
3419.790768  	0.048293 
3421.719584  	0.047947 
3423.648400  	0.047359 
3425.577216  	0.047031 
3427.506032  	0.046830 
3429.434848  	0.046449 
3431.363664  	0.046169 
3433.292480  	0.045987 
3435.221296  	0.045804 
3437.150112  	0.045586 
3439.078928  	0.045343 
3441.007744  	0.045009 
3442.936560  	0.044768 
3444.865376  	0.044285 
3446.794192  	0.043750 
3448.723008  	0.043608 
3450.651824  	0.043166 
3452.580640  	0.042638 
3454.509456  	0.042266 
3456.438272  	0.042029 
3458.367088  	0.041834 
3460.295904  	0.041524 
3462.224720  	0.040987 
3464.153536  	0.040491 
3466.082352  	0.040272 
3468.011168  	0.039806 
3469.939984  	0.039318 
3471.868800  	0.038899 
3473.797616  	0.038474 
3475.726432  	0.038049 
3477.655248  	0.037533 
3479.584064  	0.037178 
3481.512880  	0.036951 
3483.441696  	0.036298 
3485.370512  	0.035382 
3487.299328  	0.035182 
3489.228144  	0.034932 
3491.156960  	0.034391 
3493.085776  	0.033977 
3495.014592  	0.033562 
3496.943408  	0.033428 
3498.872224  	0.033114 
3500.801040  	0.032845 
3502.729856  	0.032690 
3504.658672  	0.032209 
3506.587488  	0.031183 
3508.516304  	0.030744 
3510.445120  	0.030897 
3512.373936  	0.030670 
3514.302752  	0.030163 
3516.231568  	0.029646 
3518.160384  	0.029379 
3520.089200  	0.029186 
3522.018016  	0.029086 
3523.946832  	0.029130 
3525.875648  	0.028706 
3527.804464  	0.028034 
3529.733280  	0.027708 
3531.662096  	0.027272 
3533.590912  	0.026595 
3535.519728  	0.026396 
3537.448544  	0.026439 
3539.377360  	0.025992 
3541.306176  	0.025486 
3543.234992  	0.025169 
3545.163808  	0.025567 
3547.092624  	0.025516 
3549.021440  	0.024356 
3550.950256  	0.023638 
3552.879072  	0.023984 
3554.807888  	0.023666 
3556.736704  	0.022942 
3558.665520  	0.022793 
3560.594336  	0.022873 
3562.523152  	0.022227 
3564.451968  	0.021629 
3566.380784  	0.022422 
3568.309600  	0.023161 
3570.238416  	0.021793 
3572.167232  	0.020256 
3574.096048  	0.019617 
3576.024864  	0.019349 
3577.953680  	0.019135 
3579.882496  	0.019111 
3581.811312  	0.018695 
3583.740128  	0.017939 
3585.668944  	0.017448 
3587.597760  	0.018374 
3589.526576  	0.018166 
3591.455392  	0.016353 
3593.384208  	0.015772 
3595.313024  	0.015859 
3597.241840  	0.015305 
3599.170656  	0.014357 
3601.099472  	0.014320 
3603.028288  	0.014162 
3604.957104  	0.013229 
3606.885920  	0.012634 
3608.814736  	0.013265 
3610.743552  	0.012551 
3612.672368  	0.011672 
3614.601184  	0.011504 
3616.530000  	0.010128 
3618.458816  	0.009712 
3620.387632  	0.010568 
3622.316448  	0.009553 
3624.245264  	0.008264 
3626.174080  	0.006848 
3628.102896  	0.006477 
3630.031712  	0.008892 
3631.960528  	0.007738 
3633.889344  	0.006560 
3635.818160  	0.005879 
3637.746976  	0.005248 
3639.675792  	0.005149 
3641.604608  	0.004793 
3643.533424  	0.003686 
3645.462240  	0.001674 
3647.391056  	0.000665 
3649.319872  	0.001114 
3651.248688  	0.003069 
3653.177504  	0.001916 
3655.106320  	-0.000071 
3657.035136  	0.000393 
3658.963952  	-0.000069 
3660.892768  	-0.001093 
3662.821584  	-0.001564 
3664.750400  	-0.001921 
3666.679216  	-0.003153 
3668.608032  	-0.004408 
3670.536848  	-0.002986 
3672.465664  	-0.003245 
3674.394480  	-0.005765 
3676.323296  	-0.003139 
3678.252112  	-0.001653 
3680.180928  	-0.001505 
3682.109744  	-0.002161 
3684.038560  	-0.003177 
3685.967376  	-0.004548 
3687.896192  	-0.005358 
3689.825008  	-0.003630 
3691.753824  	-0.002438 
3693.682640  	-0.002378 
3695.611456  	-0.002479 
3697.540272  	-0.002147 
3699.469088  	-0.002457 
3701.397904  	-0.001647 
3703.326720  	-0.000452 
3705.255536  	-0.000904 
3707.184352  	-0.002007 
3709.113168  	-0.002703 
3711.041984  	-0.001643 
3712.970800  	0.000736 
3714.899616  	0.000766 
3716.828432  	-0.000304 
3718.757248  	-0.000776 
3720.686064  	-0.000905 
3722.614880  	-0.000075 
3724.543696  	0.000387 
3726.472512  	0.000603 
3728.401328  	-0.000131 
3730.330144  	-0.002323 
3732.258960  	-0.002818 
3734.187776  	-0.001105 
3736.116592  	0.001728 
3738.045408  	0.001186 
3739.974224  	-0.000453 
3741.903040  	-0.001957 
3743.831856  	-0.001402 
3745.760672  	0.001651 
3747.689488  	-0.001188 
3749.618304  	-0.002512 
3751.547120  	-0.000777 
3753.475936  	0.001280 
3755.404752  	0.000341 
3757.333568  	-0.000525 
3759.262384  	-0.000243 
3761.191200  	0.000873 
3763.120016  	0.000295 
3765.048832  	0.000098 
3766.977648  	0.000251 
3768.906464  	-0.000366 
3770.835280  	0.000854 
3772.764096  	0.001106 
3774.692912  	0.000551 
3776.621728  	-0.000348 
3778.550544  	-0.000652 
3780.479360  	0.000465 
3782.408176  	0.000084 
3784.336992  	-0.000149 
3786.265808  	0.000451 
3788.194624  	0.000624 
3790.123440  	0.000362 
3792.052256  	0.000080 
3793.981072  	-0.000596 
3795.909888  	-0.000748 
3797.838704  	-0.000682 
3799.767520  	-0.002474 
3801.696336  	-0.001092 
3803.625152  	0.000241 
3805.553968  	-0.001335 
3807.482784  	0.000066 
3809.411600  	0.000898 
3811.340416  	0.000284 
3813.269232  	-0.001133 
3815.198048  	-0.002044 
3817.126864  	-0.000552 
3819.055680  	-0.002155 
3820.984496  	-0.001477 
3822.913312  	0.001128 
3824.842128  	-0.000086 
3826.770944  	-0.000277 
3828.699760  	-0.000183 
3830.628576  	-0.000940 
3832.557392  	-0.000984 
3834.486208  	-0.001690 
3836.415024  	-0.002340 
3838.343840  	-0.001150 
3840.272656  	-0.000040 
3842.201472  	-0.000096 
3844.130288  	0.000173 
3846.059104  	0.000372 
3847.987920  	-0.000526 
3849.916736  	-0.002152 
3851.845552  	-0.004011 
3853.774368  	-0.000341 
3855.703184  	0.001848 
3857.632000  	0.000537 
3859.560816  	-0.000561 
3861.489632  	-0.001003 
3863.418448  	-0.000793 
3865.347264  	0.000278 
3867.276080  	-0.000587 
3869.204896  	-0.000894 
3871.133712  	0.001408 
3873.062528  	0.000491 
3874.991344  	0.001049 
3876.920160  	0.000223 
3878.848976  	-0.000806 
3880.777792  	0.000658 
3882.706608  	0.000541 
3884.635424  	-0.000280 
3886.564240  	0.001302 
3888.493056  	0.000201 
3890.421872  	-0.000433 
3892.350688  	0.001118 
3894.279504  	0.001017 
3896.208320  	0.000015 
3898.137136  	-0.000332 
3900.065952  	0.000266 
3901.994768  	0.000504 
3903.923584  	0.001213 
3905.852400  	0.001974 
3907.781216  	0.001181 
3909.710032  	0.000485 
3911.638848  	0.000405 
3913.567664  	0.000194 
3915.496480  	0.000263 
3917.425296  	0.001303 
3919.354112  	0.001428 
3921.282928  	0.001091 
3923.211744  	0.000797 
3925.140560  	0.001280 
3927.069376  	0.000813 
3928.998192  	0.000217 
3930.927008  	0.000873 
3932.855824  	0.001858 
3934.784640  	0.001445 
3936.713456  	0.000989 
3938.642272  	0.000865 
3940.571088  	0.000473 
3942.499904  	0.001263 
3944.428720  	0.001539 
3946.357536  	0.000834 
3948.286352  	0.001037 
3950.215168  	0.000895 
3952.143984  	0.000585 
3954.072800  	0.000469 
3956.001616  	0.000493 
3957.930432  	0.000534 
3959.859248  	0.000759 
3961.788064  	0.001000 
3963.716880  	0.000902 
3965.645696  	0.000659 
3967.574512  	0.000781 
3969.503328  	0.000811 
3971.432144  	0.000737 
3973.360960  	0.000653 
3975.289776  	0.000831 
3977.218592  	0.000750 
3979.147408  	0.000664 
3981.076224  	0.000706 
3983.005040  	0.000706 
3984.933856  	0.000581 
3986.862672  	0.000472 
3988.791488  	0.000484 
3990.720304  	0.000667 
3992.649120  	0.000769 
3994.577936  	0.000705 
3996.506752  	0.000549 
3998.435568  	0.000555 
4000.364384  	0.000562 