##TITLE=No Description
##DATA TYPE=INFRARED SPECTRUM
##XUNITS=1/CM
##YUNITS=Abs
399.264912  	0.587693 
401.193728  	0.567679 
403.122544  	0.576436 
405.051360  	0.565220 
406.980176  	0.553912 
408.908992  	0.556589 
410.837808  	0.557466 
412.766624  	0.557517 
414.695440  	0.559256 
416.624256  	0.548399 
418.553072  	0.543138 
420.481888  	0.538976 
422.410704  	0.544910 
424.339520  	0.535197 
426.268336  	0.535761 
428.197152  	0.533203 
430.125968  	0.531150 
432.054784  	0.528479 
433.983600  	0.527043 
435.912416  	0.513851 
437.841232  	0.514351 
439.770048  	0.515226 
441.698864  	0.515426 
443.627680  	0.510228 
445.556496  	0.508282 
447.485312  	0.506439 
449.414128  	0.504129 
451.342944  	0.501047 
453.271760  	0.500357 
455.200576  	0.496687 
457.129392  	0.497251 
459.058208  	0.494214 
460.987024  	0.502939 
462.915840  	0.506325 
464.844656  	0.504820 
466.773472  	0.502446 
468.702288  	0.501375 
470.631104  	0.495511 
472.559920  	0.496100 
474.488736  	0.491311 
476.417552  	0.491008 
478.346368  	0.491076 
480.275184  	0.489867 
482.204000  	0.486757 
484.132816  	0.487164 
486.061632  	0.483923 
487.990448  	0.486200 
489.919264  	0.485248 
491.848080  	0.485706 
493.776896  	0.483813 
495.705712  	0.484944 
497.634528  	0.485038 
499.563344  	0.483987 
501.492160  	0.481583 
503.420976  	0.479914 
505.349792  	0.475734 
507.278608  	0.475784 
509.207424  	0.475297 
511.136240  	0.479486 
513.065056  	0.481489 
514.993872  	0.482240 
516.922688  	0.480265 
518.851504  	0.481423 
520.780320  	0.480930 
522.709136  	0.480069 
524.637952  	0.476769 
526.566768  	0.474013 
528.495584  	0.473103 
530.424400  	0.471356 
532.353216  	0.466629 
534.282032  	0.464247 
536.210848  	0.459934 
538.139664  	0.455448 
540.068480  	0.451172 
541.997296  	0.448758 
543.926112  	0.445123 
545.854928  	0.443333 
547.783744  	0.438851 
549.712560  	0.434602 
551.641376  	0.432220 
553.570192  	0.431025 
555.499008  	0.427336 
557.427824  	0.424592 
559.356640  	0.420417 
561.285456  	0.416450 
563.214272  	0.413152 
565.143088  	0.411171 
567.071904  	0.407686 
569.000720  	0.403817 
570.929536  	0.399796 
572.858352  	0.397243 
574.787168  	0.394337 
576.715984  	0.392442 
578.644800  	0.388872 
580.573616  	0.385836 
582.502432  	0.382543 
584.431248  	0.380447 
586.360064  	0.377071 
588.288880  	0.374366 
590.217696  	0.372034 
592.146512  	0.370689 
594.075328  	0.368992 
596.004144  	0.366907 
597.932960  	0.364936 
599.861776  	0.364364 
601.790592  	0.362881 
603.719408  	0.361866 
605.648224  	0.360312 
607.577040  	0.359593 
609.505856  	0.358481 
611.434672  	0.357589 
613.363488  	0.355261 
615.292304  	0.353593 
617.221120  	0.351847 
619.149936  	0.350370 
621.078752  	0.347966 
623.007568  	0.346322 
624.936384  	0.343875 
626.865200  	0.341971 
628.794016  	0.340400 
630.722832  	0.339342 
632.651648  	0.338148 
634.580464  	0.337670 
636.509280  	0.337729 
638.438096  	0.337141 
640.366912  	0.335792 
642.295728  	0.333899 
644.224544  	0.331386 
646.153360  	0.328770 
648.082176  	0.325135 
650.010992  	0.322133 
651.939808  	0.318725 
653.868624  	0.315297 
655.797440  	0.311598 
657.726256  	0.308470 
659.655072  	0.305258 
661.583888  	0.302395 
663.512704  	0.299514 
665.441520  	0.296283 
667.370336  	0.290912 
669.299152  	0.287390 
671.227968  	0.286904 
673.156784  	0.284891 
675.085600  	0.282718 
677.014416  	0.281034 
678.943232  	0.278871 
680.872048  	0.276965 
682.800864  	0.275924 
684.729680  	0.274881 
686.658496  	0.272635 
688.587312  	0.270747 
690.516128  	0.269003 
692.444944  	0.267437 
694.373760  	0.265838 
696.302576  	0.264265 
698.231392  	0.262314 
700.160208  	0.259632 
702.089024  	0.256898 
704.017840  	0.255470 
705.946656  	0.252970 
707.875472  	0.250314 
709.804288  	0.248544 
711.733104  	0.246995 
713.661920  	0.245320 
715.590736  	0.244370 
717.519552  	0.243905 
719.448368  	0.244189 
721.377184  	0.244534 
723.306000  	0.244783 
725.234816  	0.244429 
727.163632  	0.243036 
729.092448  	0.240581 
731.021264  	0.237955 
732.950080  	0.235044 
734.878896  	0.232407 
736.807712  	0.230130 
738.736528  	0.228369 
740.665344  	0.227127 
742.594160  	0.225878 
744.522976  	0.224178 
746.451792  	0.222844 
748.380608  	0.221795 
750.309424  	0.220894 
752.238240  	0.220052 
754.167056  	0.219488 
756.095872  	0.218507 
758.024688  	0.217355 
759.953504  	0.216409 
761.882320  	0.215961 
763.811136  	0.215739 
765.739952  	0.215006 
767.668768  	0.213848 
769.597584  	0.212752 
771.526400  	0.212305 
773.455216  	0.213456 
775.384032  	0.215337 
777.312848  	0.217798 
779.241664  	0.220337 
781.170480  	0.220891 
783.099296  	0.218340 
785.028112  	0.213368 
786.956928  	0.207774 
788.885744  	0.203456 
790.814560  	0.200024 
792.743376  	0.197651 
794.672192  	0.196055 
796.601008  	0.195312 
798.529824  	0.193634 
800.458640  	0.190649 
802.387456  	0.187618 
804.316272  	0.186194 
806.245088  	0.185366 
808.173904  	0.184691 
810.102720  	0.184260 
812.031536  	0.183982 
813.960352  	0.183503 
815.889168  	0.182995 
817.817984  	0.182739 
819.746800  	0.182283 
821.675616  	0.181529 
823.604432  	0.180960 
825.533248  	0.180139 
827.462064  	0.179139 
829.390880  	0.178068 
831.319696  	0.176861 
833.248512  	0.175464 
835.177328  	0.173759 
837.106144  	0.171641 
839.034960  	0.169091 
840.963776  	0.166397 
842.892592  	0.163876 
844.821408  	0.161185 
846.750224  	0.158510 
848.679040  	0.156220 
850.607856  	0.154247 
852.536672  	0.152590 
854.465488  	0.150833 
856.394304  	0.149206 
858.323120  	0.147863 
860.251936  	0.146088 
862.180752  	0.144044 
864.109568  	0.142185 
866.038384  	0.140566 
867.967200  	0.138952 
869.896016  	0.137704 
871.824832  	0.136645 
873.753648  	0.135994 
875.682464  	0.135884 
877.611280  	0.135506 
879.540096  	0.135272 
881.468912  	0.135894 
883.397728  	0.136221 
885.326544  	0.136598 
887.255360  	0.136673 
889.184176  	0.135983 
891.112992  	0.134605 
893.041808  	0.133203 
894.970624  	0.131410 
896.899440  	0.129131 
898.828256  	0.126325 
900.757072  	0.123589 
902.685888  	0.121158 
904.614704  	0.119386 
906.543520  	0.118703 
908.472336  	0.119388 
910.401152  	0.120984 
912.329968  	0.123171 
914.258784  	0.125675 
916.187600  	0.127880 
918.116416  	0.129380 
920.045232  	0.130117 
921.974048  	0.129985 
923.902864  	0.129224 
925.831680  	0.128153 
927.760496  	0.127229 
929.689312  	0.126392 
931.618128  	0.126147 
933.546944  	0.126327 
935.475760  	0.126555 
937.404576  	0.126697 
939.333392  	0.127149 
941.262208  	0.128039 
943.191024  	0.129638 
945.119840  	0.132322 
947.048656  	0.135644 
948.977472  	0.139849 
950.906288  	0.144828 
952.835104  	0.150471 
954.763920  	0.156213 
956.692736  	0.161626 
958.621552  	0.166254 
960.550368  	0.169370 
962.479184  	0.170901 
964.408000  	0.170143 
966.336816  	0.167509 
968.265632  	0.162604 
970.194448  	0.156183 
972.123264  	0.148698 
974.052080  	0.140707 
975.980896  	0.132821 
977.909712  	0.125398 
979.838528  	0.118901 
981.767344  	0.113475 
983.696160  	0.109693 
985.624976  	0.107774 
987.553792  	0.107715 
989.482608  	0.109220 
991.411424  	0.112300 
993.340240  	0.116804 
995.269056  	0.122370 
997.197872  	0.128378 
999.126688  	0.134051 
1001.055504  	0.139647 
1002.984320  	0.145109 
1004.913136  	0.150209 
1006.841952  	0.154607 
1008.770768  	0.158507 
1010.699584  	0.161316 
1012.628400  	0.162980 
1014.557216  	0.163882 
1016.486032  	0.164266 
1018.414848  	0.164458 
1020.343664  	0.164941 
1022.272480  	0.165177 
1024.201296  	0.164730 
1026.130112  	0.163026 
1028.058928  	0.162613 
1029.987744  	0.164421 
1031.916560  	0.165964 
1033.845376  	0.167220 
1035.774192  	0.168144 
1037.703008  	0.169662 
1039.631824  	0.173570 
1041.560640  	0.178783 
1043.489456  	0.185496 
1045.418272  	0.194104 
1047.347088  	0.204926 
1049.275904  	0.216640 
1051.204720  	0.228455 
1053.133536  	0.238730 
1055.062352  	0.247037 
1056.991168  	0.252091 
1058.919984  	0.256109 
1060.848800  	0.258199 
1062.777616  	0.257168 
1064.706432  	0.252717 
1066.635248  	0.248355 
1068.564064  	0.245756 
1070.492880  	0.241871 
1072.421696  	0.235815 
1074.350512  	0.230366 
1076.279328  	0.226397 
1078.208144  	0.223625 
1080.136960  	0.221586 
1082.065776  	0.219898 
1083.994592  	0.218195 
1085.923408  	0.216618 
1087.852224  	0.214008 
1089.781040  	0.211090 
1091.709856  	0.207244 
1093.638672  	0.201677 
1095.567488  	0.194212 
1097.496304  	0.186428 
1099.425120  	0.178345 
1101.353936  	0.170278 
1103.282752  	0.161991 
1105.211568  	0.153501 
1107.140384  	0.145187 
1109.069200  	0.137297 
1110.998016  	0.130220 
1112.926832  	0.123681 
1114.855648  	0.117110 
1116.784464  	0.110675 
1118.713280  	0.105129 
1120.642096  	0.100169 
1122.570912  	0.095058 
1124.499728  	0.090037 
1126.428544  	0.085292 
1128.357360  	0.080968 
1130.286176  	0.076995 
1132.214992  	0.073631 
1134.143808  	0.070557 
1136.072624  	0.067699 
1138.001440  	0.065038 
1139.930256  	0.062735 
1141.859072  	0.060686 
1143.787888  	0.058505 
1145.716704  	0.056731 
1147.645520  	0.055575 
1149.574336  	0.054639 
1151.503152  	0.053884 
1153.431968  	0.053796 
1155.360784  	0.053769 
1157.289600  	0.053921 
1159.218416  	0.054463 
1161.147232  	0.055373 
1163.076048  	0.056213 
1165.004864  	0.057425 
1166.933680  	0.058658 
1168.862496  	0.060281 
1170.791312  	0.062149 
1172.720128  	0.063785 
1174.648944  	0.065496 
1176.577760  	0.067742 
1178.506576  	0.070064 
1180.435392  	0.072130 
1182.364208  	0.074147 
1184.293024  	0.076611 
1186.221840  	0.079223 
1188.150656  	0.081900 
1190.079472  	0.084823 
1192.008288  	0.088471 
1193.937104  	0.092658 
1195.865920  	0.097169 
1197.794736  	0.101941 
1199.723552  	0.107351 
1201.652368  	0.112990 
1203.581184  	0.118531 
1205.510000  	0.123978 
1207.438816  	0.129669 
1209.367632  	0.134962 
1211.296448  	0.139727 
1213.225264  	0.144161 
1215.154080  	0.147722 
1217.082896  	0.150460 
1219.011712  	0.152585 
1220.940528  	0.154357 
1222.869344  	0.155610 
1224.798160  	0.156413 
1226.726976  	0.156640 
1228.655792  	0.156654 
1230.584608  	0.156194 
1232.513424  	0.155167 
1234.442240  	0.153268 
1236.371056  	0.150826 
1238.299872  	0.147635 
1240.228688  	0.142768 
1242.157504  	0.137592 
1244.086320  	0.133065 
1246.015136  	0.127636 
1247.943952  	0.121666 
1249.872768  	0.115698 
1251.801584  	0.110312 
1253.730400  	0.104927 
1255.659216  	0.099811 
1257.588032  	0.094969 
1259.516848  	0.090488 
1261.445664  	0.086500 
1263.374480  	0.082961 
1265.303296  	0.079736 
1267.232112  	0.077079 
1269.160928  	0.075365 
1271.089744  	0.074378 
1273.018560  	0.074092 
1274.947376  	0.074208 
1276.876192  	0.074356 
1278.805008  	0.074219 
1280.733824  	0.072961 
1282.662640  	0.070484 
1284.591456  	0.067289 
1286.520272  	0.064129 
1288.449088  	0.061508 
1290.377904  	0.059308 
1292.306720  	0.057557 
1294.235536  	0.055661 
1296.164352  	0.053058 
1298.093168  	0.050014 
1300.021984  	0.047015 
1301.950800  	0.044211 
1303.879616  	0.042003 
1305.808432  	0.040274 
1307.737248  	0.038927 
1309.666064  	0.037827 
1311.594880  	0.037459 
1313.523696  	0.037380 
1315.452512  	0.037403 
1317.381328  	0.037802 
1319.310144  	0.038515 
1321.238960  	0.039193 
1323.167776  	0.039754 
1325.096592  	0.039964 
1327.025408  	0.040011 
1328.954224  	0.039705 
1330.883040  	0.038969 
1332.811856  	0.037926 
1334.740672  	0.037103 
1336.669488  	0.036473 
1338.598304  	0.036227 
1340.527120  	0.035683 
1342.455936  	0.034793 
1344.384752  	0.034574 
1346.313568  	0.035206 
1348.242384  	0.036264 
1350.171200  	0.037539 
1352.100016  	0.038991 
1354.028832  	0.040703 
1355.957648  	0.042465 
1357.886464  	0.043975 
1359.815280  	0.045200 
1361.744096  	0.046691 
1363.672912  	0.048081 
1365.601728  	0.048367 
1367.530544  	0.048405 
1369.459360  	0.048495 
1371.388176  	0.047821 
1373.316992  	0.046635 
1375.245808  	0.045108 
1377.174624  	0.043419 
1379.103440  	0.041576 
1381.032256  	0.039875 
1382.961072  	0.038597 
1384.889888  	0.037844 
1386.818704  	0.037538 
1388.747520  	0.037120 
1390.676336  	0.035594 
1392.605152  	0.032809 
1394.533968  	0.031694 
1396.462784  	0.034009 
1398.391600  	0.034796 
1400.320416  	0.034734 
1402.249232  	0.034519 
1404.178048  	0.035281 
1406.106864  	0.036523 
1408.035680  	0.037993 
1409.964496  	0.039690 
1411.893312  	0.041855 
1413.822128  	0.043932 
1415.750944  	0.045851 
1417.679760  	0.046617 
1419.608576  	0.047047 
1421.537392  	0.047132 
1423.466208  	0.046929 
1425.395024  	0.045915 
1427.323840  	0.044163 
1429.252656  	0.042832 
1431.181472  	0.042287 
1433.110288  	0.041700 
1435.039104  	0.041067 
1436.967920  	0.041607 
1438.896736  	0.042372 
1440.825552  	0.042542 
1442.754368  	0.042812 
1444.683184  	0.042646 
1446.612000  	0.042596 
1448.540816  	0.042719 
1450.469632  	0.042710 
1452.398448  	0.042626 
1454.327264  	0.042374 
1456.256080  	0.042155 
1458.184896  	0.043453 
1460.113712  	0.044162 
1462.042528  	0.044164 
1463.971344  	0.044158 
1465.900160  	0.046202 
1467.828976  	0.047924 
1469.757792  	0.049094 
1471.686608  	0.051155 
1473.615424  	0.055759 
1475.544240  	0.058683 
1477.473056  	0.060781 
1479.401872  	0.061314 
1481.330688  	0.061615 
1483.259504  	0.061526 
1485.188320  	0.060546 
1487.117136  	0.058700 
1489.045952  	0.056880 
1490.974768  	0.054913 
1492.903584  	0.052608 
1494.832400  	0.049354 
1496.761216  	0.045936 
1498.690032  	0.043913 
1500.618848  	0.042977 
1502.547664  	0.041037 
1504.476480  	0.037973 
1506.405296  	0.036495 
1508.334112  	0.038998 
1510.262928  	0.038436 
1512.191744  	0.037188 
1514.120560  	0.036072 
1516.049376  	0.035837 
1517.978192  	0.036224 
1519.907008  	0.036161 
1521.835824  	0.037541 
1523.764640  	0.040527 
1525.693456  	0.043368 
1527.622272  	0.045523 
1529.551088  	0.046462 
1531.479904  	0.046665 
1533.408720  	0.046483 
1535.337536  	0.046585 
1537.266352  	0.043825 
1539.195168  	0.039233 
1541.123984  	0.038964 
1543.052800  	0.040308 
1544.981616  	0.039861 
1546.910432  	0.038997 
1548.839248  	0.038463 
1550.768064  	0.038767 
1552.696880  	0.037889 
1554.625696  	0.037643 
1556.554512  	0.036287 
1558.483328  	0.034947 
1560.412144  	0.040916 
1562.340960  	0.043597 
1564.269776  	0.044739 
1566.198592  	0.047496 
1568.127408  	0.049568 
1570.056224  	0.053374 
1571.985040  	0.056819 
1573.913856  	0.057899 
1575.842672  	0.058508 
1577.771488  	0.061139 
1579.700304  	0.061634 
1581.629120  	0.061672 
1583.557936  	0.061992 
1585.486752  	0.063393 
1587.415568  	0.065643 
1589.344384  	0.068808 
1591.273200  	0.072253 
1593.202016  	0.076763 
1595.130832  	0.081060 
1597.059648  	0.084871 
1598.988464  	0.087837 
1600.917280  	0.090553 
1602.846096  	0.091978 
1604.774912  	0.092675 
1606.703728  	0.092227 
1608.632544  	0.091975 
1610.561360  	0.091803 
1612.490176  	0.091744 
1614.418992  	0.090503 
1616.347808  	0.090943 
1618.276624  	0.095245 
1620.205440  	0.098711 
1622.134256  	0.101167 
1624.063072  	0.107165 
1625.991888  	0.112789 
1627.920704  	0.118686 
1629.849520  	0.125266 
1631.778336  	0.130537 
1633.707152  	0.133725 
1635.635968  	0.139200 
1637.564784  	0.146428 
1639.493600  	0.150507 
1641.422416  	0.153576 
1643.351232  	0.155428 
1645.280048  	0.155325 
1647.208864  	0.156439 
1649.137680  	0.157707 
1651.066496  	0.156040 
1652.995312  	0.153489 
1654.924128  	0.156723 
1656.852944  	0.156398 
1658.781760  	0.155334 
1660.710576  	0.153809 
1662.639392  	0.152544 
1664.568208  	0.152248 
1666.497024  	0.151137 
1668.425840  	0.148891 
1670.354656  	0.148339 
1672.283472  	0.148442 
1674.212288  	0.147660 
1676.141104  	0.148666 
1678.069920  	0.149746 
1679.998736  	0.150121 
1681.927552  	0.149524 
1683.856368  	0.148257 
1685.785184  	0.150756 
1687.714000  	0.150910 
1689.642816  	0.150050 
1691.571632  	0.148258 
1693.500448  	0.145492 
1695.429264  	0.141493 
1697.358080  	0.138629 
1699.286896  	0.134636 
1701.215712  	0.130923 
1703.144528  	0.128027 
1705.073344  	0.123712 
1707.002160  	0.119112 
1708.930976  	0.114886 
1710.859792  	0.110204 
1712.788608  	0.104896 
1714.717424  	0.099060 
1716.646240  	0.092484 
1718.575056  	0.086887 
1720.503872  	0.082306 
1722.432688  	0.077570 
1724.361504  	0.072035 
1726.290320  	0.066676 
1728.219136  	0.061526 
1730.147952  	0.056889 
1732.076768  	0.051614 
1734.005584  	0.046228 
1735.934400  	0.041878 
1737.863216  	0.038331 
1739.792032  	0.033810 
1741.720848  	0.030759 
1743.649664  	0.028036 
1745.578480  	0.025221 
1747.507296  	0.022097 
1749.436112  	0.020303 
1751.364928  	0.019554 
1753.293744  	0.018634 
1755.222560  	0.016785 
1757.151376  	0.015991 
1759.080192  	0.014981 
1761.009008  	0.014161 
1762.937824  	0.013887 
1764.866640  	0.013496 
1766.795456  	0.012633 
1768.724272  	0.012570 
1770.653088  	0.010834 
1772.581904  	0.010340 
1774.510720  	0.011284 
1776.439536  	0.011649 
1778.368352  	0.011236 
1780.297168  	0.011182 
1782.225984  	0.011041 
1784.154800  	0.011004 
1786.083616  	0.011004 
1788.012432  	0.010630 
1789.941248  	0.009738 
1791.870064  	0.009547 
1793.798880  	0.009843 
1795.727696  	0.010222 
1797.656512  	0.009730 
1799.585328  	0.009280 
1801.514144  	0.009620 
1803.442960  	0.009639 
1805.371776  	0.009062 
1807.300592  	0.008905 
1809.229408  	0.008409 
1811.158224  	0.008577 
1813.087040  	0.008569 
1815.015856  	0.008366 
1816.944672  	0.008256 
1818.873488  	0.008672 
1820.802304  	0.008719 
1822.731120  	0.008346 
1824.659936  	0.007918 
1826.588752  	0.008140 
1828.517568  	0.007599 
1830.446384  	0.008156 
1832.375200  	0.008534 
1834.304016  	0.008445 
1836.232832  	0.008206 
1838.161648  	0.008411 
1840.090464  	0.008144 
1842.019280  	0.007662 
1843.948096  	0.007328 
1845.876912  	0.008274 
1847.805728  	0.008497 
1849.734544  	0.008546 
1851.663360  	0.008223 
1853.592176  	0.008377 
1855.520992  	0.008082 
1857.449808  	0.008352 
1859.378624  	0.008518 
1861.307440  	0.008609 
1863.236256  	0.007940 
1865.165072  	0.007796 
1867.093888  	0.007583 
1869.022704  	0.008122 
1870.951520  	0.008374 
1872.880336  	0.008395 
1874.809152  	0.008020 
1876.737968  	0.007980 
1878.666784  	0.007828 
1880.595600  	0.007861 
1882.524416  	0.007694 
1884.453232  	0.007788 
1886.382048  	0.007436 
1888.310864  	0.007622 
1890.239680  	0.008085 
1892.168496  	0.008180 
1894.097312  	0.007861 
1896.026128  	0.007953 
1897.954944  	0.007589 
1899.883760  	0.007455 
1901.812576  	0.007336 
1903.741392  	0.007807 
1905.670208  	0.007869 
1907.599024  	0.007840 
1909.527840  	0.007433 
1911.456656  	0.007524 
1913.385472  	0.007807 
1915.314288  	0.007839 
1917.243104  	0.007249 
1919.171920  	0.007743 
1921.100736  	0.007787 
1923.029552  	0.008323 
1924.958368  	0.007870 
1926.887184  	0.007427 
1928.816000  	0.007087 
1930.744816  	0.007221 
1932.673632  	0.006926 
1934.602448  	0.007294 
1936.531264  	0.007418 
1938.460080  	0.007581 
1940.388896  	0.007002 
1942.317712  	0.006686 
1944.246528  	0.006742 
1946.175344  	0.007528 
1948.104160  	0.006746 
1950.032976  	0.006800 
1951.961792  	0.007449 
1953.890608  	0.008192 
1955.819424  	0.007594 
1957.748240  	0.007506 
1959.677056  	0.007601 
1961.605872  	0.006636 
1963.534688  	0.005882 
1965.463504  	0.007902 
1967.392320  	0.007835 
1969.321136  	0.007334 
1971.249952  	0.007362 
1973.178768  	0.008816 
1975.107584  	0.007529 
1977.036400  	0.007273 
1978.965216  	0.009497 
1980.894032  	0.009308 
1982.822848  	0.007171 
1984.751664  	0.008247 
1986.680480  	0.009194 
1988.609296  	0.008892 
1990.538112  	0.007772 
1992.466928  	0.008423 
1994.395744  	0.008709 
1996.324560  	0.008190 
1998.253376  	0.007234 
2000.182192  	0.006922 
2002.111008  	0.006517 
2004.039824  	0.007323 
2005.968640  	0.007022 
2007.897456  	0.007963 
2009.826272  	0.008211 
2011.755088  	0.007556 
2013.683904  	0.008480 
2015.612720  	0.009666 
2017.541536  	0.008263 
2019.470352  	0.007475 
2021.399168  	0.007698 
2023.327984  	0.008366 
2025.256800  	0.007657 
2027.185616  	0.007247 
2029.114432  	0.007291 
2031.043248  	0.009048 
2032.972064  	0.008892 
2034.900880  	0.009404 
2036.829696  	0.008961 
2038.758512  	0.008762 
2040.687328  	0.009007 
2042.616144  	0.008053 
2044.544960  	0.007092 
2046.473776  	0.008195 
2048.402592  	0.008918 
2050.331408  	0.009882 
2052.260224  	0.009279 
2054.189040  	0.009139 
2056.117856  	0.008453 
2058.046672  	0.008720 
2059.975488  	0.008565 
2061.904304  	0.008392 
2063.833120  	0.008944 
2065.761936  	0.009481 
2067.690752  	0.009173 
2069.619568  	0.008797 
2071.548384  	0.007890 
2073.477200  	0.007848 
2075.406016  	0.008547 
2077.334832  	0.009231 
2079.263648  	0.008781 
2081.192464  	0.008657 
2083.121280  	0.009065 
2085.050096  	0.009258 
2086.978912  	0.008921 
2088.907728  	0.008764 
2090.836544  	0.008008 
2092.765360  	0.007741 
2094.694176  	0.007941 
2096.622992  	0.007980 
2098.551808  	0.007695 
2100.480624  	0.008420 
2102.409440  	0.008541 
2104.338256  	0.008541 
2106.267072  	0.008577 
2108.195888  	0.008476 
2110.124704  	0.008723 
2112.053520  	0.008920 
2113.982336  	0.008791 
2115.911152  	0.009238 
2117.839968  	0.008798 
2119.768784  	0.008131 
2121.697600  	0.007851 
2123.626416  	0.007679 
2125.555232  	0.007629 
2127.484048  	0.008320 
2129.412864  	0.008027 
2131.341680  	0.006975 
2133.270496  	0.006912 
2135.199312  	0.007911 
2137.128128  	0.008517 
2139.056944  	0.008477 
2140.985760  	0.007336 
2142.914576  	0.007651 
2144.843392  	0.007409 
2146.772208  	0.007501 
2148.701024  	0.007488 
2150.629840  	0.007708 
2152.558656  	0.007071 
2154.487472  	0.006391 
2156.416288  	0.005798 
2158.345104  	0.008439 
2160.273920  	0.011326 
2162.202736  	0.011423 
2164.131552  	0.010790 
2166.060368  	0.011980 
2167.989184  	0.010231 
2169.918000  	0.009485 
2171.846816  	0.010183 
2173.775632  	0.010525 
2175.704448  	0.010649 
2177.633264  	0.011193 
2179.562080  	0.010471 
2181.490896  	0.009581 
2183.419712  	0.009750 
2185.348528  	0.010496 
2187.277344  	0.010100 
2189.206160  	0.009934 
2191.134976  	0.010639 
2193.063792  	0.011884 
2194.992608  	0.011572 
2196.921424  	0.010088 
2198.850240  	0.009875 
2200.779056  	0.010423 
2202.707872  	0.010773 
2204.636688  	0.011064 
2206.565504  	0.011172 
2208.494320  	0.011441 
2210.423136  	0.009520 
2212.351952  	0.009024 
2214.280768  	0.009457 
2216.209584  	0.009435 
2218.138400  	0.009391 
2220.067216  	0.009707 
2221.996032  	0.009796 
2223.924848  	0.009301 
2225.853664  	0.009535 
2227.782480  	0.010080 
2229.711296  	0.010074 
2231.640112  	0.009756 
2233.568928  	0.009502 
2235.497744  	0.009406 
2237.426560  	0.009116 
2239.355376  	0.009302 
2241.284192  	0.009357 
2243.213008  	0.009451 
2245.141824  	0.009336 
2247.070640  	0.009035 
2248.999456  	0.008814 
2250.928272  	0.008891 
2252.857088  	0.008506 
2254.785904  	0.008302 
2256.714720  	0.009194 
2258.643536  	0.009876 
2260.572352  	0.009353 
2262.501168  	0.009472 
2264.429984  	0.009637 
2266.358800  	0.009808 
2268.287616  	0.009753 
2270.216432  	0.009774 
2272.145248  	0.009459 
2274.074064  	0.009592 
2276.002880  	0.009729 
2277.931696  	0.010239 
2279.860512  	0.010590 
2281.789328  	0.010753 
2283.718144  	0.010521 
2285.646960  	0.010547 
2287.575776  	0.010840 
2289.504592  	0.010665 
2291.433408  	0.010034 
2293.362224  	0.009986 
2295.291040  	0.010128 
2297.219856  	0.010350 
2299.148672  	0.010481 
2301.077488  	0.010531 
2303.006304  	0.010667 
2304.935120  	0.010632 
2306.863936  	0.010236 
2308.792752  	0.010247 
2310.721568  	0.010325 
2312.650384  	0.010028 
2314.579200  	0.009562 
2316.508016  	0.009389 
2318.436832  	0.008891 
2320.365648  	0.008153 
2322.294464  	0.007463 
2324.223280  	0.006531 
2326.152096  	0.004930 
2328.080912  	0.003822 
2330.009728  	0.002941 
2331.938544  	0.002392 
2333.867360  	0.001294 
2335.796176  	0.000359 
2337.724992  	-0.000100 
2339.653808  	0.000149 
2341.582624  	0.000463 
2343.511440  	0.001572 
2345.440256  	0.003459 
2347.369072  	0.005645 
2349.297888  	0.005780 
2351.226704  	0.003765 
2353.155520  	0.001422 
2355.084336  	-0.000430 
2357.013152  	-0.001900 
2358.941968  	-0.002867 
2360.870784  	-0.003013 
2362.799600  	-0.002336 
2364.728416  	-0.001550 
2366.657232  	-0.000358 
2368.586048  	0.001216 
2370.514864  	0.003606 
2372.443680  	0.005686 
2374.372496  	0.007540 
2376.301312  	0.008775 
2378.230128  	0.009866 
2380.158944  	0.010539 
2382.087760  	0.010858 
2384.016576  	0.010842 
2385.945392  	0.010643 
2387.874208  	0.010283 
2389.803024  	0.010082 
2391.731840  	0.009821 
2393.660656  	0.009849 
2395.589472  	0.010153 
2397.518288  	0.010350 
2399.447104  	0.010291 
2401.375920  	0.010105 
2403.304736  	0.010132 
2405.233552  	0.010244 
2407.162368  	0.010450 
2409.091184  	0.010486 
2411.020000  	0.010334 
2412.948816  	0.010425 
2414.877632  	0.010490 
2416.806448  	0.010804 
2418.735264  	0.011062 
2420.664080  	0.010891 
2422.592896  	0.010615 
2424.521712  	0.010589 
2426.450528  	0.010730 
2428.379344  	0.010755 
2430.308160  	0.010750 
2432.236976  	0.011007 
2434.165792  	0.011284 
2436.094608  	0.011495 
2438.023424  	0.011714 
2439.952240  	0.012032 
2441.881056  	0.012017 
2443.809872  	0.011954 
2445.738688  	0.011849 
2447.667504  	0.011872 
2449.596320  	0.012034 
2451.525136  	0.012178 
2453.453952  	0.012171 
2455.382768  	0.012466 
2457.311584  	0.012664 
2459.240400  	0.012557 
2461.169216  	0.012345 
2463.098032  	0.012334 
2465.026848  	0.012361 
2466.955664  	0.012168 
2468.884480  	0.011943 
2470.813296  	0.012230 
2472.742112  	0.012271 
2474.670928  	0.012207 
2476.599744  	0.012299 
2478.528560  	0.012466 
2480.457376  	0.012812 
2482.386192  	0.012858 
2484.315008  	0.012833 
2486.243824  	0.012963 
2488.172640  	0.012686 
2490.101456  	0.012637 
2492.030272  	0.013092 
2493.959088  	0.013237 
2495.887904  	0.012858 
2497.816720  	0.012821 
2499.745536  	0.012969 
2501.674352  	0.013093 
2503.603168  	0.013177 
2505.531984  	0.013267 
2507.460800  	0.013272 
2509.389616  	0.013279 
2511.318432  	0.013175 
2513.247248  	0.013439 
2515.176064  	0.013482 
2517.104880  	0.013557 
2519.033696  	0.013670 
2520.962512  	0.013641 
2522.891328  	0.013812 
2524.820144  	0.014004 
2526.748960  	0.014005 
2528.677776  	0.014101 
2530.606592  	0.014004 
2532.535408  	0.014049 
2534.464224  	0.014326 
2536.393040  	0.014417 
2538.321856  	0.014181 
2540.250672  	0.014230 
2542.179488  	0.014253 
2544.108304  	0.014426 
2546.037120  	0.014219 
2547.965936  	0.014474 
2549.894752  	0.014765 
2551.823568  	0.014864 
2553.752384  	0.014835 
2555.681200  	0.014849 
2557.610016  	0.014908 
2559.538832  	0.014905 
2561.467648  	0.015031 
2563.396464  	0.015356 
2565.325280  	0.015564 
2567.254096  	0.015565 
2569.182912  	0.015389 
2571.111728  	0.015281 
2573.040544  	0.015170 
2574.969360  	0.015255 
2576.898176  	0.015600 
2578.826992  	0.015949 
2580.755808  	0.015827 
2582.684624  	0.015632 
2584.613440  	0.015550 
2586.542256  	0.015770 
2588.471072  	0.016034 
2590.399888  	0.016145 
2592.328704  	0.016198 
2594.257520  	0.016311 
2596.186336  	0.016557 
2598.115152  	0.016597 
2600.043968  	0.016302 
2601.972784  	0.016294 
2603.901600  	0.016499 
2605.830416  	0.016650 
2607.759232  	0.016582 
2609.688048  	0.016775 
2611.616864  	0.016848 
2613.545680  	0.016848 
2615.474496  	0.016930 
2617.403312  	0.016995 
2619.332128  	0.017167 
2621.260944  	0.017352 
2623.189760  	0.017294 
2625.118576  	0.017323 
2627.047392  	0.017441 
2628.976208  	0.017826 
2630.905024  	0.018030 
2632.833840  	0.018142 
2634.762656  	0.018222 
2636.691472  	0.018160 
2638.620288  	0.018150 
2640.549104  	0.018264 
2642.477920  	0.018335 
2644.406736  	0.018420 
2646.335552  	0.018627 
2648.264368  	0.018780 
2650.193184  	0.018930 
2652.122000  	0.019071 
2654.050816  	0.019108 
2655.979632  	0.019063 
2657.908448  	0.019124 
2659.837264  	0.019152 
2661.766080  	0.019091 
2663.694896  	0.019144 
2665.623712  	0.019139 
2667.552528  	0.019119 
2669.481344  	0.019312 
2671.410160  	0.019587 
2673.338976  	0.019754 
2675.267792  	0.019854 
2677.196608  	0.019975 
2679.125424  	0.019964 
2681.054240  	0.019942 
2682.983056  	0.020073 
2684.911872  	0.020252 
2686.840688  	0.020377 
2688.769504  	0.020533 
2690.698320  	0.020563 
2692.627136  	0.020640 
2694.555952  	0.020710 
2696.484768  	0.020616 
2698.413584  	0.020720 
2700.342400  	0.020858 
2702.271216  	0.021043 
2704.200032  	0.021208 
2706.128848  	0.021277 
2708.057664  	0.021401 
2709.986480  	0.021494 
2711.915296  	0.021543 
2713.844112  	0.021572 
2715.772928  	0.021620 
2717.701744  	0.021817 
2719.630560  	0.021910 
2721.559376  	0.021948 
2723.488192  	0.021976 
2725.417008  	0.022111 
2727.345824  	0.022263 
2729.274640  	0.022246 
2731.203456  	0.022334 
2733.132272  	0.022576 
2735.061088  	0.022697 
2736.989904  	0.022760 
2738.918720  	0.022738 
2740.847536  	0.022642 
2742.776352  	0.022735 
2744.705168  	0.022952 
2746.633984  	0.023014 
2748.562800  	0.023073 
2750.491616  	0.023210 
2752.420432  	0.023262 
2754.349248  	0.023310 
2756.278064  	0.023359 
2758.206880  	0.023327 
2760.135696  	0.023578 
2762.064512  	0.023688 
2763.993328  	0.023624 
2765.922144  	0.023750 
2767.850960  	0.023827 
2769.779776  	0.023774 
2771.708592  	0.023765 
2773.637408  	0.023748 
2775.566224  	0.023797 
2777.495040  	0.023785 
2779.423856  	0.023849 
2781.352672  	0.024057 
2783.281488  	0.024239 
2785.210304  	0.024245 
2787.139120  	0.024323 
2789.067936  	0.024451 
2790.996752  	0.024502 
2792.925568  	0.024646 
2794.854384  	0.024809 
2796.783200  	0.024763 
2798.712016  	0.024721 
2800.640832  	0.024719 
2802.569648  	0.024891 
2804.498464  	0.025059 
2806.427280  	0.025098 
2808.356096  	0.025199 
2810.284912  	0.025402 
2812.213728  	0.025413 
2814.142544  	0.025319 
2816.071360  	0.025361 
2818.000176  	0.025371 
2819.928992  	0.025329 
2821.857808  	0.025413 
2823.786624  	0.025420 
2825.715440  	0.025350 
2827.644256  	0.025274 
2829.573072  	0.025230 
2831.501888  	0.025047 
2833.430704  	0.024911 
2835.359520  	0.024760 
2837.288336  	0.024542 
2839.217152  	0.024378 
2841.145968  	0.024270 
2843.074784  	0.024070 
2845.003600  	0.023940 
2846.932416  	0.023849 
2848.861232  	0.023717 
2850.790048  	0.023560 
2852.718864  	0.023224 
2854.647680  	0.022826 
2856.576496  	0.022629 
2858.505312  	0.022295 
2860.434128  	0.021927 
2862.362944  	0.021489 
2864.291760  	0.021002 
2866.220576  	0.020601 
2868.149392  	0.020608 
2870.078208  	0.020841 
2872.007024  	0.020955 
2873.935840  	0.020965 
2875.864656  	0.021150 
2877.793472  	0.021267 
2879.722288  	0.021142 
2881.651104  	0.020835 
2883.579920  	0.020602 
2885.508736  	0.020742 
2887.437552  	0.021020 
2889.366368  	0.020993 
2891.295184  	0.020745 
2893.224000  	0.020577 
2895.152816  	0.020764 
2897.081632  	0.020574 
2899.010448  	0.019540 
2900.939264  	0.018709 
2902.868080  	0.019404 
2904.796896  	0.020310 
2906.725712  	0.020741 
2908.654528  	0.021004 
2910.583344  	0.021316 
2912.512160  	0.021955 
2914.440976  	0.022810 
2916.369792  	0.023452 
2918.298608  	0.023953 
2920.227424  	0.024481 
2922.156240  	0.024997 
2924.085056  	0.025484 
2926.013872  	0.026136 
2927.942688  	0.026907 
2929.871504  	0.027711 
2931.800320  	0.028317 
2933.729136  	0.028704 
2935.657952  	0.028972 
2937.586768  	0.029382 
2939.515584  	0.029561 
2941.444400  	0.029579 
2943.373216  	0.029654 
2945.302032  	0.029733 
2947.230848  	0.029792 
2949.159664  	0.029568 
2951.088480  	0.029131 
2953.017296  	0.028749 
2954.946112  	0.028164 
2956.874928  	0.027581 
2958.803744  	0.027139 
2960.732560  	0.026556 
2962.661376  	0.026070 
2964.590192  	0.025536 
2966.519008  	0.024782 
2968.447824  	0.023959 
2970.376640  	0.023298 
2972.305456  	0.022920 
2974.234272  	0.023006 
2976.163088  	0.022982 
2978.091904  	0.022941 
2980.020720  	0.022863 
2981.949536  	0.022879 
2983.878352  	0.022614 
2985.807168  	0.021930 
2987.735984  	0.021580 
2989.664800  	0.021967 
2991.593616  	0.023668 
2993.522432  	0.024730 
2995.451248  	0.025139 
2997.380064  	0.025771 
2999.308880  	0.026445 
3001.237696  	0.027230 
3003.166512  	0.028055 
3005.095328  	0.028841 
3007.024144  	0.029696 
3008.952960  	0.030556 
3010.881776  	0.031543 
3012.810592  	0.032453 
3014.739408  	0.033167 
3016.668224  	0.033985 
3018.597040  	0.034704 
3020.525856  	0.035130 
3022.454672  	0.035836 
3024.383488  	0.036597 
3026.312304  	0.037141 
3028.241120  	0.037577 
3030.169936  	0.038013 
3032.098752  	0.038633 
3034.027568  	0.038924 
3035.956384  	0.039202 
3037.885200  	0.039737 
3039.814016  	0.040197 
3041.742832  	0.040646 
3043.671648  	0.040905 
3045.600464  	0.041122 
3047.529280  	0.041406 
3049.458096  	0.041764 
3051.386912  	0.041990 
3053.315728  	0.042108 
3055.244544  	0.042453 
3057.173360  	0.042960 
3059.102176  	0.043374 
3061.030992  	0.043596 
3062.959808  	0.043790 
3064.888624  	0.044152 
3066.817440  	0.044598 
3068.746256  	0.044898 
3070.675072  	0.044957 
3072.603888  	0.045260 
3074.532704  	0.045725 
3076.461520  	0.045977 
3078.390336  	0.046184 
3080.319152  	0.046721 
3082.247968  	0.047260 
3084.176784  	0.047599 
3086.105600  	0.047759 
3088.034416  	0.047987 
3089.963232  	0.048330 
3091.892048  	0.048649 
3093.820864  	0.048847 
3095.749680  	0.049117 
3097.678496  	0.049216 
3099.607312  	0.049482 
3101.536128  	0.049808 
3103.464944  	0.050194 
3105.393760  	0.050654 
3107.322576  	0.050868 
3109.251392  	0.050894 
3111.180208  	0.051145 
3113.109024  	0.051332 
3115.037840  	0.051449 
3116.966656  	0.051681 
3118.895472  	0.051936 
3120.824288  	0.052077 
3122.753104  	0.052341 
3124.681920  	0.052650 
3126.610736  	0.052759 
3128.539552  	0.052914 
3130.468368  	0.052845 
3132.397184  	0.052961 
3134.326000  	0.053324 
3136.254816  	0.053482 
3138.183632  	0.053587 
3140.112448  	0.053701 
3142.041264  	0.053890 
3143.970080  	0.054166 
3145.898896  	0.054419 
3147.827712  	0.054574 
3149.756528  	0.054695 
3151.685344  	0.055013 
3153.614160  	0.055421 
3155.542976  	0.055544 
3157.471792  	0.055702 
3159.400608  	0.056145 
3161.329424  	0.056493 
3163.258240  	0.056756 
3165.187056  	0.056913 
3167.115872  	0.057068 
3169.044688  	0.057276 
3170.973504  	0.057279 
3172.902320  	0.057406 
3174.831136  	0.057625 
3176.759952  	0.057796 
3178.688768  	0.058042 
3180.617584  	0.058121 
3182.546400  	0.057906 
3184.475216  	0.058054 
3186.404032  	0.058316 
3188.332848  	0.058324 
3190.261664  	0.058524 
3192.190480  	0.058798 
3194.119296  	0.058592 
3196.048112  	0.058488 
3197.976928  	0.058794 
3199.905744  	0.058775 
3201.834560  	0.058718 
3203.763376  	0.058828 
3205.692192  	0.058881 
3207.621008  	0.058657 
3209.549824  	0.058447 
3211.478640  	0.058251 
3213.407456  	0.058110 
3215.336272  	0.058184 
3217.265088  	0.058068 
3219.193904  	0.057806 
3221.122720  	0.057579 
3223.051536  	0.057560 
3224.980352  	0.057363 
3226.909168  	0.056983 
3228.837984  	0.056769 
3230.766800  	0.056855 
3232.695616  	0.056933 
3234.624432  	0.056779 
3236.553248  	0.056752 
3238.482064  	0.056779 
3240.410880  	0.056678 
3242.339696  	0.056522 
3244.268512  	0.056420 
3246.197328  	0.056338 
3248.126144  	0.056251 
3250.054960  	0.056316 
3251.983776  	0.056263 
3253.912592  	0.056375 
3255.841408  	0.056516 
3257.770224  	0.056562 
3259.699040  	0.056557 
3261.627856  	0.056479 
3263.556672  	0.056522 
3265.485488  	0.056605 
3267.414304  	0.056789 
3269.343120  	0.056937 
3271.271936  	0.057037 
3273.200752  	0.057239 
3275.129568  	0.057355 
3277.058384  	0.057400 
3278.987200  	0.057488 
3280.916016  	0.057562 
3282.844832  	0.057532 
3284.773648  	0.057501 
3286.702464  	0.057559 
3288.631280  	0.057781 
3290.560096  	0.057884 
3292.488912  	0.058123 
3294.417728  	0.058251 
3296.346544  	0.058357 
3298.275360  	0.058548 
3300.204176  	0.058757 
3302.132992  	0.058930 
3304.061808  	0.059178 
3305.990624  	0.059254 
3307.919440  	0.059232 
3309.848256  	0.059200 
3311.777072  	0.059366 
3313.705888  	0.059671 
3315.634704  	0.059921 
3317.563520  	0.060101 
3319.492336  	0.060191 
3321.421152  	0.060308 
3323.349968  	0.060444 
3325.278784  	0.060617 
3327.207600  	0.060732 
3329.136416  	0.060671 
3331.065232  	0.060579 
3332.994048  	0.060623 
3334.922864  	0.060608 
3336.851680  	0.060512 
3338.780496  	0.060608 
3340.709312  	0.060493 
3342.638128  	0.060286 
3344.566944  	0.060146 
3346.495760  	0.060033 
3348.424576  	0.060009 
3350.353392  	0.059834 
3352.282208  	0.059482 
3354.211024  	0.059454 
3356.139840  	0.059465 
3358.068656  	0.059208 
3359.997472  	0.058962 
3361.926288  	0.058595 
3363.855104  	0.058196 
3365.783920  	0.058055 
3367.712736  	0.058040 
3369.641552  	0.057625 
3371.570368  	0.057078 
3373.499184  	0.056792 
3375.428000  	0.056639 
3377.356816  	0.056349 
3379.285632  	0.055999 
3381.214448  	0.055765 
3383.143264  	0.055581 
3385.072080  	0.055611 
3387.000896  	0.055330 
3388.929712  	0.054851 
3390.858528  	0.054518 
3392.787344  	0.054272 
3394.716160  	0.053882 
3396.644976  	0.053605 
3398.573792  	0.053349 
3400.502608  	0.052870 
3402.431424  	0.052427 
3404.360240  	0.052116 
3406.289056  	0.051851 
3408.217872  	0.051452 
3410.146688  	0.051128 
3412.075504  	0.051095 
3414.004320  	0.051018 
3415.933136  	0.050599 
3417.861952  	0.050030 
3419.790768  	0.049863 
3421.719584  	0.049677 
3423.648400  	0.049185 
3425.577216  	0.048960 
3427.506032  	0.048832 
3429.434848  	0.048331 
3431.363664  	0.048027 
3433.292480  	0.047740 
3435.221296  	0.047376 
3437.150112  	0.046982 
3439.078928  	0.046801 
3441.007744  	0.046638 
3442.936560  	0.046390 
3444.865376  	0.045636 
3446.794192  	0.044931 
3448.723008  	0.044845 
3450.651824  	0.044462 
3452.580640  	0.044044 
3454.509456  	0.043581 
3456.438272  	0.043192 
3458.367088  	0.042976 
3460.295904  	0.042634 
3462.224720  	0.042129 
3464.153536  	0.041658 
3466.082352  	0.041380 
3468.011168  	0.041154 
3469.939984  	0.040709 
3471.868800  	0.040154 
3473.797616  	0.039565 
3475.726432  	0.039083 
3477.655248  	0.038597 
3479.584064  	0.038261 
3481.512880  	0.038032 
3483.441696  	0.037601 
3485.370512  	0.036907 
3487.299328  	0.036450 
3489.228144  	0.036127 
3491.156960  	0.035688 
3493.085776  	0.035359 
3495.014592  	0.034831 
3496.943408  	0.034489 
3498.872224  	0.033987 
3500.801040  	0.033512 
3502.729856  	0.033272 
3504.658672  	0.032910 
3506.587488  	0.032073 
3508.516304  	0.031653 
3510.445120  	0.031720 
3512.373936  	0.031548 
3514.302752  	0.031172 
3516.231568  	0.030551 
3518.160384  	0.030142 
3520.089200  	0.029979 
3522.018016  	0.029755 
3523.946832  	0.029691 
3525.875648  	0.029269 
3527.804464  	0.028675 
3529.733280  	0.028210 
3531.662096  	0.027922 
3533.590912  	0.027586 
3535.519728  	0.027319 
3537.448544  	0.027248 
3539.377360  	0.026760 
3541.306176  	0.026042 
3543.234992  	0.025596 
3545.163808  	0.026029 
3547.092624  	0.026055 
3549.021440  	0.024977 
3550.950256  	0.024264 
3552.879072  	0.024590 
3554.807888  	0.024515 
3556.736704  	0.023585 
3558.665520  	0.023197 
3560.594336  	0.023432 
3562.523152  	0.022756 
3564.451968  	0.021773 
3566.380784  	0.022047 
3568.309600  	0.022953 
3570.238416  	0.021998 
3572.167232  	0.020910 
3574.096048  	0.020551 
3576.024864  	0.020076 
3577.953680  	0.019540 
3579.882496  	0.019514 
3581.811312  	0.019316 
3583.740128  	0.018353 
3585.668944  	0.017459 
3587.597760  	0.018469 
3589.526576  	0.018669 
3591.455392  	0.016699 
3593.384208  	0.016121 
3595.313024  	0.016354 
3597.241840  	0.015634 
3599.170656  	0.014534 
3601.099472  	0.014278 
3603.028288  	0.014226 
3604.957104  	0.013207 
3606.885920  	0.012394 
3608.814736  	0.013240 
3610.743552  	0.012465 
3612.672368  	0.011184 
3614.601184  	0.011352 
3616.530000  	0.010379 
3618.458816  	0.009655 
3620.387632  	0.010216 
3622.316448  	0.009630 
3624.245264  	0.008389 
3626.174080  	0.006676 
3628.102896  	0.005831 
3630.031712  	0.008302 
3631.960528  	0.007378 
3633.889344  	0.006326 
3635.818160  	0.006013 
3637.746976  	0.005290 
3639.675792  	0.004787 
3641.604608  	0.004606 
3643.533424  	0.003696 
3645.462240  	0.001436 
3647.391056  	0.000080 
3649.319872  	0.000603 
3651.248688  	0.002449 
3653.177504  	0.001399 
3655.106320  	-0.000478 
3657.035136  	0.000226 
3658.963952  	0.000019 
3660.892768  	-0.001072 
3662.821584  	-0.001517 
3664.750400  	-0.001895 
3666.679216  	-0.003262 
3668.608032  	-0.004515 
3670.536848  	-0.003117 
3672.465664  	-0.003698 
3674.394480  	-0.006344 
3676.323296  	-0.003523 
3678.252112  	-0.001959 
3680.180928  	-0.001966 
3682.109744  	-0.002428 
3684.038560  	-0.002927 
3685.967376  	-0.004410 
3687.896192  	-0.005976 
3689.825008  	-0.004589 
3691.753824  	-0.002778 
3693.682640  	-0.002428 
3695.611456  	-0.002706 
3697.540272  	-0.002346 
3699.469088  	-0.002705 
3701.397904  	-0.002271 
3703.326720  	-0.000921 
3705.255536  	-0.001120 
3707.184352  	-0.002358 
3709.113168  	-0.002998 
3711.041984  	-0.001983 
3712.970800  	-0.000285 
3714.899616  	-0.000015 
3716.828432  	-0.000646 
3718.757248  	-0.001125 
3720.686064  	-0.001813 
3722.614880  	-0.001425 
3724.543696  	-0.000686 
3726.472512  	-0.000188 
3728.401328  	-0.000888 
3730.330144  	-0.002951 
3732.258960  	-0.003362 
3734.187776  	-0.002219 
3736.116592  	0.000073 
3738.045408  	0.000092 
3739.974224  	-0.001124 
3741.903040  	-0.002563 
3743.831856  	-0.002375 
3745.760672  	0.000536 
3747.689488  	-0.002238 
3749.618304  	-0.003960 
3751.547120  	-0.002351 
3753.475936  	0.000213 
3755.404752  	-0.000310 
3757.333568  	-0.001241 
3759.262384  	-0.001065 
3761.191200  	0.000163 
3763.120016  	-0.000424 
3765.048832  	-0.000781 
3766.977648  	-0.000460 
3768.906464  	-0.001035 
3770.835280  	0.000061 
3772.764096  	0.000587 
3774.692912  	0.000005 
3776.621728  	-0.001021 
3778.550544  	-0.001121 
3780.479360  	0.000047 
3782.408176  	-0.000415 
3784.336992  	-0.000915 
3786.265808  	-0.000092 
3788.194624  	0.000249 
3790.123440  	-0.000184 
3792.052256  	-0.000461 
3793.981072  	-0.000964 
3795.909888  	-0.001328 
3797.838704  	-0.001299 
3799.767520  	-0.003195 
3801.696336  	-0.002109 
3803.625152  	-0.000470 
3805.553968  	-0.002055 
3807.482784  	-0.001004 
3809.411600  	0.000170 
3811.340416  	-0.000021 
3813.269232  	-0.001244 
3815.198048  	-0.002522 
3817.126864  	-0.001342 
3819.055680  	-0.002508 
3820.984496  	-0.002085 
3822.913312  	0.000016 
3824.842128  	-0.001010 
3826.770944  	-0.001105 
3828.699760  	-0.000873 
3830.628576  	-0.001432 
3832.557392  	-0.001429 
3834.486208  	-0.002105 
3836.415024  	-0.002632 
3838.343840  	-0.001779 
3840.272656  	-0.000969 
3842.201472  	-0.000847 
3844.130288  	-0.000532 
3846.059104  	-0.000327 
3847.987920  	-0.001191 
3849.916736  	-0.002581 
3851.845552  	-0.004473 
3853.774368  	-0.001506 
3855.703184  	0.000994 
3857.632000  	0.000128 
3859.560816  	-0.001008 
3861.489632  	-0.001746 
3863.418448  	-0.001556 
3865.347264  	-0.000378 
3867.276080  	-0.001141 
3869.204896  	-0.001741 
3871.133712  	0.000483 
3873.062528  	-0.000431 
3874.991344  	-0.000003 
3876.920160  	-0.000536 
3878.848976  	-0.001582 
3880.777792  	-0.000309 
3882.706608  	0.000004 
3884.635424  	-0.001077 
3886.564240  	0.000242 
3888.493056  	-0.000423 
3890.421872  	-0.001140 
3892.350688  	-0.000087 
3894.279504  	-0.000148 
3896.208320  	-0.000808 
3898.137136  	-0.001083 
3900.065952  	-0.000580 
3901.994768  	-0.000616 
3903.923584  	0.000045 
3905.852400  	0.001011 
3907.781216  	0.000382 
3909.710032  	-0.000276 
3911.638848  	-0.000441 
3913.567664  	-0.000528 
3915.496480  	-0.000383 
3917.425296  	0.000293 
3919.354112  	0.000353 
3921.282928  	0.000326 
3923.211744  	-0.000093 
3925.140560  	0.000146 
3927.069376  	-0.000055 
3928.998192  	-0.000441 
3930.927008  	0.000081 
3932.855824  	0.001039 
3934.784640  	0.000587 
3936.713456  	0.000056 
3938.642272  	0.000093 
3940.571088  	-0.000159 
3942.499904  	0.000410 
3944.428720  	0.000545 
3946.357536  	0.000039 
3948.286352  	0.000251 
3950.215168  	0.000107 
3952.143984  	-0.000320 
3954.072800  	-0.000486 
3956.001616  	-0.000353 
3957.930432  	-0.000063 
3959.859248  	0.000117 
3961.788064  	0.000226 
3963.716880  	0.000102 
3965.645696  	-0.000086 
3967.574512  	0.000105 
3969.503328  	0.000150 
3971.432144  	-0.000010 
3973.360960  	-0.000053 
3975.289776  	0.000153 
3977.218592  	0.000155 
3979.147408  	0.000084 
3981.076224  	-0.000036 
3983.005040  	-0.000065 
3984.933856  	-0.000005 
3986.862672  	0.000023 
3988.791488  	-0.000087 
3990.720304  	-0.000061 
3992.649120  	0.000059 
3994.577936  	-0.000061 
3996.506752  	-0.000165 
3998.435568  	-0.000069 
4000.364384  	0.000014 