##TITLE=No Description
##DATA TYPE=INFRARED SPECTRUM
##XUNITS=1/CM
##YUNITS=Abs
399.264912  	0.549966 
401.193728  	0.554992 
403.122544  	0.560767 
405.051360  	0.555815 
406.980176  	0.546092 
408.908992  	0.526408 
410.837808  	0.530548 
412.766624  	0.531277 
414.695440  	0.532713 
416.624256  	0.531442 
418.553072  	0.531458 
420.481888  	0.526300 
422.410704  	0.523859 
424.339520  	0.517072 
426.268336  	0.516169 
428.197152  	0.507874 
430.125968  	0.508583 
432.054784  	0.499712 
433.983600  	0.497246 
435.912416  	0.494024 
437.841232  	0.494414 
439.770048  	0.491524 
441.698864  	0.489731 
443.627680  	0.488348 
445.556496  	0.486006 
447.485312  	0.480472 
449.414128  	0.481662 
451.342944  	0.480344 
453.271760  	0.481591 
455.200576  	0.479134 
457.129392  	0.477248 
459.058208  	0.476337 
460.987024  	0.476372 
462.915840  	0.474493 
464.844656  	0.480338 
466.773472  	0.479826 
468.702288  	0.478908 
470.631104  	0.477182 
472.559920  	0.478393 
474.488736  	0.476328 
476.417552  	0.477236 
478.346368  	0.471708 
480.275184  	0.471717 
482.204000  	0.473093 
484.132816  	0.472884 
486.061632  	0.464296 
487.990448  	0.464145 
489.919264  	0.462729 
491.848080  	0.463349 
493.776896  	0.463752 
495.705712  	0.465662 
497.634528  	0.461770 
499.563344  	0.460776 
501.492160  	0.459573 
503.420976  	0.459251 
505.349792  	0.458863 
507.278608  	0.458406 
509.207424  	0.456132 
511.136240  	0.455821 
513.065056  	0.455529 
514.993872  	0.458551 
516.922688  	0.458557 
518.851504  	0.458656 
520.780320  	0.456867 
522.709136  	0.456316 
524.637952  	0.454230 
526.566768  	0.452607 
528.495584  	0.450697 
530.424400  	0.448410 
532.353216  	0.443735 
534.282032  	0.440471 
536.210848  	0.437910 
538.139664  	0.436597 
540.068480  	0.432856 
541.997296  	0.429396 
543.926112  	0.424563 
545.854928  	0.422348 
547.783744  	0.418438 
549.712560  	0.414789 
551.641376  	0.411785 
553.570192  	0.409619 
555.499008  	0.405980 
557.427824  	0.402964 
559.356640  	0.400276 
561.285456  	0.397844 
563.214272  	0.394164 
565.143088  	0.391622 
567.071904  	0.387824 
569.000720  	0.384357 
570.929536  	0.381311 
572.858352  	0.379080 
574.787168  	0.376062 
576.715984  	0.373044 
578.644800  	0.370018 
580.573616  	0.367286 
582.502432  	0.363194 
584.431248  	0.360981 
586.360064  	0.358965 
588.288880  	0.357425 
590.217696  	0.355373 
592.146512  	0.353450 
594.075328  	0.350974 
596.004144  	0.349326 
597.932960  	0.347603 
599.861776  	0.347258 
601.790592  	0.346294 
603.719408  	0.344755 
605.648224  	0.342954 
607.577040  	0.342110 
609.505856  	0.341284 
611.434672  	0.340199 
613.363488  	0.338496 
615.292304  	0.337391 
617.221120  	0.335423 
619.149936  	0.333336 
621.078752  	0.330692 
623.007568  	0.328430 
624.936384  	0.326843 
626.865200  	0.326084 
628.794016  	0.324506 
630.722832  	0.323218 
632.651648  	0.321886 
634.580464  	0.321071 
636.509280  	0.321367 
638.438096  	0.320723 
640.366912  	0.319566 
642.295728  	0.318029 
644.224544  	0.315213 
646.153360  	0.311900 
648.082176  	0.308155 
650.010992  	0.305304 
651.939808  	0.302452 
653.868624  	0.299365 
655.797440  	0.296223 
657.726256  	0.294114 
659.655072  	0.290863 
661.583888  	0.287154 
663.512704  	0.284108 
665.441520  	0.281833 
667.370336  	0.276981 
669.299152  	0.273363 
671.227968  	0.272832 
673.156784  	0.270908 
675.085600  	0.268447 
677.014416  	0.265955 
678.943232  	0.264312 
680.872048  	0.263505 
682.800864  	0.262421 
684.729680  	0.260894 
686.658496  	0.258836 
688.587312  	0.257114 
690.516128  	0.254939 
692.444944  	0.253520 
694.373760  	0.252139 
696.302576  	0.250773 
698.231392  	0.248796 
700.160208  	0.246482 
702.089024  	0.244085 
704.017840  	0.242442 
705.946656  	0.239977 
707.875472  	0.237678 
709.804288  	0.236096 
711.733104  	0.234582 
713.661920  	0.233004 
715.590736  	0.232285 
717.519552  	0.231845 
719.448368  	0.231872 
721.377184  	0.232142 
723.306000  	0.232583 
725.234816  	0.232217 
727.163632  	0.230907 
729.092448  	0.228542 
731.021264  	0.225826 
732.950080  	0.223255 
734.878896  	0.220736 
736.807712  	0.218475 
738.736528  	0.216784 
740.665344  	0.215407 
742.594160  	0.214482 
744.522976  	0.212989 
746.451792  	0.211470 
748.380608  	0.210314 
750.309424  	0.209495 
752.238240  	0.208929 
754.167056  	0.208570 
756.095872  	0.207439 
758.024688  	0.206090 
759.953504  	0.205251 
761.882320  	0.205040 
763.811136  	0.204502 
765.739952  	0.203701 
767.668768  	0.202787 
769.597584  	0.201575 
771.526400  	0.200966 
773.455216  	0.202079 
775.384032  	0.203803 
777.312848  	0.206126 
779.241664  	0.208763 
781.170480  	0.209369 
783.099296  	0.207045 
785.028112  	0.202754 
786.956928  	0.197537 
788.885744  	0.193217 
790.814560  	0.190160 
792.743376  	0.187920 
794.672192  	0.186124 
796.601008  	0.185225 
798.529824  	0.183855 
800.458640  	0.181358 
802.387456  	0.178503 
804.316272  	0.177089 
806.245088  	0.176274 
808.173904  	0.175502 
810.102720  	0.175069 
812.031536  	0.174573 
813.960352  	0.173872 
815.889168  	0.173766 
817.817984  	0.173448 
819.746800  	0.172767 
821.675616  	0.172313 
823.604432  	0.171895 
825.533248  	0.170947 
827.462064  	0.169804 
829.390880  	0.168919 
831.319696  	0.167653 
833.248512  	0.166025 
835.177328  	0.164642 
837.106144  	0.162809 
839.034960  	0.160349 
840.963776  	0.157951 
842.892592  	0.155520 
844.821408  	0.152865 
846.750224  	0.150552 
848.679040  	0.148691 
850.607856  	0.146683 
852.536672  	0.145045 
854.465488  	0.143282 
856.394304  	0.141729 
858.323120  	0.140191 
860.251936  	0.138498 
862.180752  	0.136622 
864.109568  	0.134831 
866.038384  	0.133231 
867.967200  	0.131577 
869.896016  	0.130075 
871.824832  	0.128880 
873.753648  	0.128118 
875.682464  	0.128097 
877.611280  	0.127919 
879.540096  	0.127813 
881.468912  	0.128590 
883.397728  	0.128892 
885.326544  	0.128951 
887.255360  	0.128977 
889.184176  	0.128373 
891.112992  	0.126987 
893.041808  	0.125531 
894.970624  	0.124079 
896.899440  	0.122245 
898.828256  	0.119509 
900.757072  	0.116512 
902.685888  	0.114097 
904.614704  	0.112850 
906.543520  	0.112456 
908.472336  	0.113072 
910.401152  	0.114583 
912.329968  	0.116694 
914.258784  	0.118939 
916.187600  	0.121090 
918.116416  	0.122607 
920.045232  	0.123203 
921.974048  	0.122890 
923.902864  	0.122235 
925.831680  	0.121332 
927.760496  	0.120388 
929.689312  	0.119652 
931.618128  	0.119515 
933.546944  	0.119699 
935.475760  	0.119825 
937.404576  	0.119845 
939.333392  	0.120376 
941.262208  	0.121364 
943.191024  	0.123076 
945.119840  	0.125635 
947.048656  	0.128866 
948.977472  	0.133070 
950.906288  	0.138032 
952.835104  	0.143415 
954.763920  	0.148746 
956.692736  	0.153753 
958.621552  	0.158104 
960.550368  	0.161111 
962.479184  	0.162626 
964.408000  	0.161903 
966.336816  	0.159267 
968.265632  	0.154712 
970.194448  	0.148783 
972.123264  	0.141666 
974.052080  	0.134062 
975.980896  	0.126612 
977.909712  	0.119583 
979.838528  	0.113646 
981.767344  	0.108731 
983.696160  	0.105184 
985.624976  	0.103356 
987.553792  	0.103226 
989.482608  	0.104697 
991.411424  	0.107603 
993.340240  	0.111767 
995.269056  	0.117033 
997.197872  	0.122566 
999.126688  	0.127786 
1001.055504  	0.133129 
1002.984320  	0.138271 
1004.913136  	0.143031 
1006.841952  	0.147233 
1008.770768  	0.150894 
1010.699584  	0.153398 
1012.628400  	0.154987 
1014.557216  	0.155821 
1016.486032  	0.156186 
1018.414848  	0.156434 
1020.343664  	0.156884 
1022.272480  	0.156827 
1024.201296  	0.156215 
1026.130112  	0.154522 
1028.058928  	0.154302 
1029.987744  	0.156247 
1031.916560  	0.157407 
1033.845376  	0.158206 
1035.774192  	0.158909 
1037.703008  	0.160352 
1039.631824  	0.164069 
1041.560640  	0.168771 
1043.489456  	0.175043 
1045.418272  	0.183028 
1047.347088  	0.192803 
1049.275904  	0.203706 
1051.204720  	0.214759 
1053.133536  	0.224345 
1055.062352  	0.231792 
1056.991168  	0.236186 
1058.919984  	0.239824 
1060.848800  	0.241814 
1062.777616  	0.240811 
1064.706432  	0.236450 
1066.635248  	0.232316 
1068.564064  	0.230331 
1070.492880  	0.226609 
1072.421696  	0.220813 
1074.350512  	0.215636 
1076.279328  	0.211702 
1078.208144  	0.208874 
1080.136960  	0.206948 
1082.065776  	0.205400 
1083.994592  	0.203948 
1085.923408  	0.202561 
1087.852224  	0.200127 
1089.781040  	0.197444 
1091.709856  	0.193995 
1093.638672  	0.189007 
1095.567488  	0.182338 
1097.496304  	0.175251 
1099.425120  	0.167492 
1101.353936  	0.159546 
1103.282752  	0.151827 
1105.211568  	0.144066 
1107.140384  	0.136444 
1109.069200  	0.128967 
1110.998016  	0.122298 
1112.926832  	0.116250 
1114.855648  	0.110135 
1116.784464  	0.104120 
1118.713280  	0.098850 
1120.642096  	0.094094 
1122.570912  	0.089275 
1124.499728  	0.084688 
1126.428544  	0.080375 
1128.357360  	0.076193 
1130.286176  	0.072387 
1132.214992  	0.069194 
1134.143808  	0.066332 
1136.072624  	0.063597 
1138.001440  	0.061050 
1139.930256  	0.058748 
1141.859072  	0.056689 
1143.787888  	0.054748 
1145.716704  	0.053243 
1147.645520  	0.052038 
1149.574336  	0.051173 
1151.503152  	0.050426 
1153.431968  	0.050167 
1155.360784  	0.050378 
1157.289600  	0.050682 
1159.218416  	0.051138 
1161.147232  	0.051911 
1163.076048  	0.052603 
1165.004864  	0.053726 
1166.933680  	0.054839 
1168.862496  	0.056475 
1170.791312  	0.058249 
1172.720128  	0.059963 
1174.648944  	0.061555 
1176.577760  	0.063394 
1178.506576  	0.065476 
1180.435392  	0.067522 
1182.364208  	0.069482 
1184.293024  	0.071642 
1186.221840  	0.073972 
1188.150656  	0.076551 
1190.079472  	0.079466 
1192.008288  	0.082867 
1193.937104  	0.086684 
1195.865920  	0.091165 
1197.794736  	0.095752 
1199.723552  	0.100675 
1201.652368  	0.105857 
1203.581184  	0.111114 
1205.510000  	0.116151 
1207.438816  	0.121213 
1209.367632  	0.126070 
1211.296448  	0.130490 
1213.225264  	0.134497 
1215.154080  	0.137637 
1217.082896  	0.140232 
1219.011712  	0.142326 
1220.940528  	0.144175 
1222.869344  	0.145251 
1224.798160  	0.145676 
1226.726976  	0.145985 
1228.655792  	0.145934 
1230.584608  	0.145448 
1232.513424  	0.144431 
1234.442240  	0.142628 
1236.371056  	0.140533 
1238.299872  	0.137698 
1240.228688  	0.133137 
1242.157504  	0.128301 
1244.086320  	0.124111 
1246.015136  	0.118868 
1247.943952  	0.113188 
1249.872768  	0.107477 
1251.801584  	0.102502 
1253.730400  	0.097697 
1255.659216  	0.093040 
1257.588032  	0.088542 
1259.516848  	0.084245 
1261.445664  	0.080459 
1263.374480  	0.077159 
1265.303296  	0.074169 
1267.232112  	0.071791 
1269.160928  	0.070139 
1271.089744  	0.069258 
1273.018560  	0.069005 
1274.947376  	0.069138 
1276.876192  	0.069340 
1278.805008  	0.069094 
1280.733824  	0.067940 
1282.662640  	0.065642 
1284.591456  	0.062616 
1286.520272  	0.059654 
1288.449088  	0.057247 
1290.377904  	0.055149 
1292.306720  	0.053525 
1294.235536  	0.051793 
1296.164352  	0.049340 
1298.093168  	0.046446 
1300.021984  	0.043703 
1301.950800  	0.041137 
1303.879616  	0.039054 
1305.808432  	0.037493 
1307.737248  	0.036361 
1309.666064  	0.035340 
1311.594880  	0.034961 
1313.523696  	0.034859 
1315.452512  	0.034904 
1317.381328  	0.035340 
1319.310144  	0.035901 
1321.238960  	0.036401 
1323.167776  	0.036914 
1325.096592  	0.037209 
1327.025408  	0.037324 
1328.954224  	0.036956 
1330.883040  	0.036211 
1332.811856  	0.035335 
1334.740672  	0.034738 
1336.669488  	0.034244 
1338.598304  	0.033957 
1340.527120  	0.033253 
1342.455936  	0.032368 
1344.384752  	0.032261 
1346.313568  	0.032805 
1348.242384  	0.033705 
1350.171200  	0.035035 
1352.100016  	0.036515 
1354.028832  	0.037950 
1355.957648  	0.039496 
1357.886464  	0.041037 
1359.815280  	0.042301 
1361.744096  	0.043700 
1363.672912  	0.044737 
1365.601728  	0.044930 
1367.530544  	0.045091 
1369.459360  	0.045025 
1371.388176  	0.044250 
1373.316992  	0.043053 
1375.245808  	0.041425 
1377.174624  	0.039871 
1379.103440  	0.038211 
1381.032256  	0.036546 
1382.961072  	0.035367 
1384.889888  	0.034888 
1386.818704  	0.034715 
1388.747520  	0.033966 
1390.676336  	0.032323 
1392.605152  	0.029976 
1394.533968  	0.029101 
1396.462784  	0.031178 
1398.391600  	0.031982 
1400.320416  	0.032009 
1402.249232  	0.031809 
1404.178048  	0.032309 
1406.106864  	0.033357 
1408.035680  	0.034849 
1409.964496  	0.036584 
1411.893312  	0.038747 
1413.822128  	0.040711 
1415.750944  	0.042686 
1417.679760  	0.043701 
1419.608576  	0.043866 
1421.537392  	0.043708 
1423.466208  	0.043526 
1425.395024  	0.042651 
1427.323840  	0.041322 
1429.252656  	0.039958 
1431.181472  	0.039127 
1433.110288  	0.038773 
1435.039104  	0.038600 
1436.967920  	0.038745 
1438.896736  	0.039173 
1440.825552  	0.039440 
1442.754368  	0.039828 
1444.683184  	0.039787 
1446.612000  	0.039570 
1448.540816  	0.039427 
1450.469632  	0.039539 
1452.398448  	0.039675 
1454.327264  	0.039733 
1456.256080  	0.039548 
1458.184896  	0.040057 
1460.113712  	0.040845 
1462.042528  	0.041219 
1463.971344  	0.041282 
1465.900160  	0.042820 
1467.828976  	0.044752 
1469.757792  	0.046365 
1471.686608  	0.048198 
1473.615424  	0.051929 
1475.544240  	0.054685 
1477.473056  	0.056472 
1479.401872  	0.056974 
1481.330688  	0.057290 
1483.259504  	0.057049 
1485.188320  	0.056157 
1487.117136  	0.054500 
1489.045952  	0.052841 
1490.974768  	0.050562 
1492.903584  	0.048209 
1494.832400  	0.045521 
1496.761216  	0.042601 
1498.690032  	0.040464 
1500.618848  	0.039401 
1502.547664  	0.038049 
1504.476480  	0.035658 
1506.405296  	0.033990 
1508.334112  	0.035727 
1510.262928  	0.035554 
1512.191744  	0.034574 
1514.120560  	0.033715 
1516.049376  	0.033407 
1517.978192  	0.033323 
1519.907008  	0.033645 
1521.835824  	0.034928 
1523.764640  	0.037418 
1525.693456  	0.039813 
1527.622272  	0.041982 
1529.551088  	0.043282 
1531.479904  	0.043675 
1533.408720  	0.043169 
1535.337536  	0.043064 
1537.266352  	0.041210 
1539.195168  	0.037152 
1541.123984  	0.035572 
1543.052800  	0.036958 
1544.981616  	0.037127 
1546.910432  	0.036452 
1548.839248  	0.035947 
1550.768064  	0.035955 
1552.696880  	0.035357 
1554.625696  	0.035310 
1556.554512  	0.034294 
1558.483328  	0.033099 
1560.412144  	0.037494 
1562.340960  	0.040290 
1564.269776  	0.041648 
1566.198592  	0.044202 
1568.127408  	0.045989 
1570.056224  	0.049448 
1571.985040  	0.052944 
1573.913856  	0.054133 
1575.842672  	0.054343 
1577.771488  	0.056506 
1579.700304  	0.057112 
1581.629120  	0.057173 
1583.557936  	0.057456 
1585.486752  	0.058649 
1587.415568  	0.060658 
1589.344384  	0.063754 
1591.273200  	0.067158 
1593.202016  	0.071030 
1595.130832  	0.074805 
1597.059648  	0.078597 
1598.988464  	0.081396 
1600.917280  	0.083601 
1602.846096  	0.084783 
1604.774912  	0.085474 
1606.703728  	0.085160 
1608.632544  	0.084843 
1610.561360  	0.084424 
1612.490176  	0.084491 
1614.418992  	0.083900 
1616.347808  	0.084336 
1618.276624  	0.087653 
1620.205440  	0.091025 
1622.134256  	0.093753 
1624.063072  	0.099144 
1625.991888  	0.104033 
1627.920704  	0.109333 
1629.849520  	0.115652 
1631.778336  	0.120742 
1633.707152  	0.123590 
1635.635968  	0.128539 
1637.564784  	0.135286 
1639.493600  	0.139027 
1641.422416  	0.141745 
1643.351232  	0.143174 
1645.280048  	0.142954 
1647.208864  	0.144302 
1649.137680  	0.145498 
1651.066496  	0.143600 
1652.995312  	0.141288 
1654.924128  	0.144529 
1656.852944  	0.144023 
1658.781760  	0.142946 
1660.710576  	0.141400 
1662.639392  	0.140270 
1664.568208  	0.140102 
1666.497024  	0.139018 
1668.425840  	0.137075 
1670.354656  	0.136645 
1672.283472  	0.136759 
1674.212288  	0.136198 
1676.141104  	0.137147 
1678.069920  	0.138114 
1679.998736  	0.138725 
1681.927552  	0.138100 
1683.856368  	0.136902 
1685.785184  	0.139518 
1687.714000  	0.139553 
1689.642816  	0.138496 
1691.571632  	0.136771 
1693.500448  	0.134131 
1695.429264  	0.130450 
1697.358080  	0.128003 
1699.286896  	0.124061 
1701.215712  	0.120734 
1703.144528  	0.118015 
1705.073344  	0.113638 
1707.002160  	0.109548 
1708.930976  	0.105865 
1710.859792  	0.101543 
1712.788608  	0.096656 
1714.717424  	0.091292 
1716.646240  	0.085289 
1718.575056  	0.079923 
1720.503872  	0.075788 
1722.432688  	0.071435 
1724.361504  	0.066322 
1726.290320  	0.061542 
1728.219136  	0.056867 
1730.147952  	0.052433 
1732.076768  	0.047867 
1734.005584  	0.042801 
1735.934400  	0.038523 
1737.863216  	0.035338 
1739.792032  	0.030880 
1741.720848  	0.028345 
1743.649664  	0.025968 
1745.578480  	0.023203 
1747.507296  	0.020455 
1749.436112  	0.018976 
1751.364928  	0.017840 
1753.293744  	0.016811 
1755.222560  	0.015508 
1757.151376  	0.014725 
1759.080192  	0.013706 
1761.009008  	0.012931 
1762.937824  	0.012379 
1764.866640  	0.012320 
1766.795456  	0.011949 
1768.724272  	0.011643 
1770.653088  	0.009897 
1772.581904  	0.009189 
1774.510720  	0.010078 
1776.439536  	0.010536 
1778.368352  	0.010259 
1780.297168  	0.010233 
1782.225984  	0.010038 
1784.154800  	0.009949 
1786.083616  	0.009815 
1788.012432  	0.009688 
1789.941248  	0.009248 
1791.870064  	0.008910 
1793.798880  	0.008715 
1795.727696  	0.009316 
1797.656512  	0.008984 
1799.585328  	0.008569 
1801.514144  	0.008688 
1803.442960  	0.008667 
1805.371776  	0.008242 
1807.300592  	0.008199 
1809.229408  	0.007703 
1811.158224  	0.007638 
1813.087040  	0.007469 
1815.015856  	0.007326 
1816.944672  	0.007379 
1818.873488  	0.007731 
1820.802304  	0.007731 
1822.731120  	0.007697 
1824.659936  	0.007490 
1826.588752  	0.007614 
1828.517568  	0.007004 
1830.446384  	0.007120 
1832.375200  	0.007502 
1834.304016  	0.007587 
1836.232832  	0.007432 
1838.161648  	0.007770 
1840.090464  	0.007699 
1842.019280  	0.007363 
1843.948096  	0.006801 
1845.876912  	0.007331 
1847.805728  	0.007517 
1849.734544  	0.007528 
1851.663360  	0.007309 
1853.592176  	0.007511 
1855.520992  	0.007386 
1857.449808  	0.007768 
1859.378624  	0.007846 
1861.307440  	0.007579 
1863.236256  	0.007133 
1865.165072  	0.006949 
1867.093888  	0.006846 
1869.022704  	0.007379 
1870.951520  	0.007409 
1872.880336  	0.007540 
1874.809152  	0.007202 
1876.737968  	0.007261 
1878.666784  	0.007176 
1880.595600  	0.007249 
1882.524416  	0.007157 
1884.453232  	0.006971 
1886.382048  	0.006637 
1888.310864  	0.006825 
1890.239680  	0.007086 
1892.168496  	0.007242 
1894.097312  	0.007077 
1896.026128  	0.007380 
1897.954944  	0.007119 
1899.883760  	0.007059 
1901.812576  	0.006758 
1903.741392  	0.006735 
1905.670208  	0.006870 
1907.599024  	0.006975 
1909.527840  	0.006561 
1911.456656  	0.006960 
1913.385472  	0.006997 
1915.314288  	0.007247 
1917.243104  	0.007495 
1919.171920  	0.007406 
1921.100736  	0.007217 
1923.029552  	0.007547 
1924.958368  	0.006809 
1926.887184  	0.006935 
1928.816000  	0.006589 
1930.744816  	0.006010 
1932.673632  	0.005555 
1934.602448  	0.005967 
1936.531264  	0.006373 
1938.460080  	0.006331 
1940.388896  	0.006163 
1942.317712  	0.006458 
1944.246528  	0.006451 
1946.175344  	0.006871 
1948.104160  	0.005942 
1950.032976  	0.006224 
1951.961792  	0.006801 
1953.890608  	0.007047 
1955.819424  	0.006102 
1957.748240  	0.006270 
1959.677056  	0.006769 
1961.605872  	0.006886 
1963.534688  	0.005874 
1965.463504  	0.007414 
1967.392320  	0.007292 
1969.321136  	0.006380 
1971.249952  	0.005825 
1973.178768  	0.006867 
1975.107584  	0.005987 
1977.036400  	0.005383 
1978.965216  	0.007899 
1980.894032  	0.008684 
1982.822848  	0.007037 
1984.751664  	0.007719 
1986.680480  	0.008329 
1988.609296  	0.008218 
1990.538112  	0.007283 
1992.466928  	0.007459 
1994.395744  	0.006737 
1996.324560  	0.006273 
1998.253376  	0.006462 
2000.182192  	0.007306 
2002.111008  	0.007357 
2004.039824  	0.007136 
2005.968640  	0.005984 
2007.897456  	0.007102 
2009.826272  	0.007828 
2011.755088  	0.006498 
2013.683904  	0.006637 
2015.612720  	0.007934 
2017.541536  	0.007261 
2019.470352  	0.007324 
2021.399168  	0.006826 
2023.327984  	0.007050 
2025.256800  	0.006725 
2027.185616  	0.005830 
2029.114432  	0.006304 
2031.043248  	0.008980 
2032.972064  	0.008020 
2034.900880  	0.007286 
2036.829696  	0.007052 
2038.758512  	0.007324 
2040.687328  	0.007862 
2042.616144  	0.008482 
2044.544960  	0.007881 
2046.473776  	0.007972 
2048.402592  	0.008073 
2050.331408  	0.008826 
2052.260224  	0.008008 
2054.189040  	0.007835 
2056.117856  	0.007532 
2058.046672  	0.008138 
2059.975488  	0.007587 
2061.904304  	0.007307 
2063.833120  	0.007947 
2065.761936  	0.008424 
2067.690752  	0.007738 
2069.619568  	0.007196 
2071.548384  	0.006497 
2073.477200  	0.006816 
2075.406016  	0.007456 
2077.334832  	0.007479 
2079.263648  	0.007172 
2081.192464  	0.007490 
2083.121280  	0.007744 
2085.050096  	0.007593 
2086.978912  	0.007225 
2088.907728  	0.007416 
2090.836544  	0.007031 
2092.765360  	0.006843 
2094.694176  	0.007216 
2096.622992  	0.007313 
2098.551808  	0.006896 
2100.480624  	0.006993 
2102.409440  	0.006602 
2104.338256  	0.007010 
2106.267072  	0.007385 
2108.195888  	0.007616 
2110.124704  	0.008044 
2112.053520  	0.008265 
2113.982336  	0.007610 
2115.911152  	0.007612 
2117.839968  	0.007239 
2119.768784  	0.006636 
2121.697600  	0.006380 
2123.626416  	0.006359 
2125.555232  	0.006120 
2127.484048  	0.006553 
2129.412864  	0.006362 
2131.341680  	0.005469 
2133.270496  	0.005842 
2135.199312  	0.006651 
2137.128128  	0.007157 
2139.056944  	0.007381 
2140.985760  	0.005974 
2142.914576  	0.006656 
2144.843392  	0.007067 
2146.772208  	0.006955 
2148.701024  	0.007259 
2150.629840  	0.007514 
2152.558656  	0.006045 
2154.487472  	0.005027 
2156.416288  	0.004578 
2158.345104  	0.006947 
2160.273920  	0.009522 
2162.202736  	0.008528 
2164.131552  	0.007586 
2166.060368  	0.009361 
2167.989184  	0.009228 
2169.918000  	0.008447 
2171.846816  	0.007640 
2173.775632  	0.007861 
2175.704448  	0.008476 
2177.633264  	0.009460 
2179.562080  	0.009255 
2181.490896  	0.008280 
2183.419712  	0.007877 
2185.348528  	0.008400 
2187.277344  	0.008137 
2189.206160  	0.008355 
2191.134976  	0.008766 
2193.063792  	0.009737 
2194.992608  	0.009643 
2196.921424  	0.008752 
2198.850240  	0.009051 
2200.779056  	0.009236 
2202.707872  	0.008971 
2204.636688  	0.008999 
2206.565504  	0.008923 
2208.494320  	0.009111 
2210.423136  	0.007652 
2212.351952  	0.007343 
2214.280768  	0.007980 
2216.209584  	0.007745 
2218.138400  	0.007711 
2220.067216  	0.007788 
2221.996032  	0.007746 
2223.924848  	0.007429 
2225.853664  	0.007917 
2227.782480  	0.008532 
2229.711296  	0.008643 
2231.640112  	0.008618 
2233.568928  	0.007930 
2235.497744  	0.007629 
2237.426560  	0.007474 
2239.355376  	0.007891 
2241.284192  	0.007617 
2243.213008  	0.007712 
2245.141824  	0.007905 
2247.070640  	0.007541 
2248.999456  	0.007557 
2250.928272  	0.007983 
2252.857088  	0.007334 
2254.785904  	0.007017 
2256.714720  	0.007975 
2258.643536  	0.008628 
2260.572352  	0.008055 
2262.501168  	0.008125 
2264.429984  	0.008089 
2266.358800  	0.008426 
2268.287616  	0.008483 
2270.216432  	0.008309 
2272.145248  	0.008049 
2274.074064  	0.008206 
2276.002880  	0.008374 
2277.931696  	0.008771 
2279.860512  	0.009092 
2281.789328  	0.009095 
2283.718144  	0.008945 
2285.646960  	0.009198 
2287.575776  	0.009290 
2289.504592  	0.009076 
2291.433408  	0.008713 
2293.362224  	0.008572 
2295.291040  	0.008584 
2297.219856  	0.008811 
2299.148672  	0.008698 
2301.077488  	0.008510 
2303.006304  	0.008610 
2304.935120  	0.008570 
2306.863936  	0.008421 
2308.792752  	0.008427 
2310.721568  	0.008253 
2312.650384  	0.007726 
2314.579200  	0.007244 
2316.508016  	0.007018 
2318.436832  	0.006316 
2320.365648  	0.005601 
2322.294464  	0.004991 
2324.223280  	0.003928 
2326.152096  	0.002093 
2328.080912  	0.000965 
2330.009728  	0.000069 
2331.938544  	-0.000764 
2333.867360  	-0.001841 
2335.796176  	-0.002531 
2337.724992  	-0.003153 
2339.653808  	-0.003352 
2341.582624  	-0.003334 
2343.511440  	-0.002124 
2345.440256  	0.000015 
2347.369072  	0.002684 
2349.297888  	0.003204 
2351.226704  	0.001109 
2353.155520  	-0.001515 
2355.084336  	-0.003787 
2357.013152  	-0.005349 
2358.941968  	-0.006114 
2360.870784  	-0.006694 
2362.799600  	-0.006378 
2364.728416  	-0.005377 
2366.657232  	-0.003696 
2368.586048  	-0.002045 
2370.514864  	-0.000078 
2372.443680  	0.002242 
2374.372496  	0.004637 
2376.301312  	0.006198 
2378.230128  	0.007556 
2380.158944  	0.008213 
2382.087760  	0.008583 
2384.016576  	0.008848 
2385.945392  	0.008952 
2387.874208  	0.008701 
2389.803024  	0.008470 
2391.731840  	0.008358 
2393.660656  	0.008446 
2395.589472  	0.008635 
2397.518288  	0.008733 
2399.447104  	0.008536 
2401.375920  	0.008286 
2403.304736  	0.008287 
2405.233552  	0.008572 
2407.162368  	0.008764 
2409.091184  	0.008649 
2411.020000  	0.008653 
2412.948816  	0.008823 
2414.877632  	0.008751 
2416.806448  	0.008817 
2418.735264  	0.009118 
2420.664080  	0.009055 
2422.592896  	0.008910 
2424.521712  	0.009099 
2426.450528  	0.009293 
2428.379344  	0.009180 
2430.308160  	0.009138 
2432.236976  	0.009377 
2434.165792  	0.009593 
2436.094608  	0.009920 
2438.023424  	0.010070 
2439.952240  	0.010154 
2441.881056  	0.010199 
2443.809872  	0.010056 
2445.738688  	0.010101 
2447.667504  	0.010262 
2449.596320  	0.010196 
2451.525136  	0.010122 
2453.453952  	0.010097 
2455.382768  	0.010419 
2457.311584  	0.010733 
2459.240400  	0.010667 
2461.169216  	0.010436 
2463.098032  	0.010373 
2465.026848  	0.010388 
2466.955664  	0.010385 
2468.884480  	0.010272 
2470.813296  	0.010258 
2472.742112  	0.010205 
2474.670928  	0.010151 
2476.599744  	0.010177 
2478.528560  	0.010364 
2480.457376  	0.010752 
2482.386192  	0.010730 
2484.315008  	0.010735 
2486.243824  	0.010910 
2488.172640  	0.010805 
2490.101456  	0.010870 
2492.030272  	0.011043 
2493.959088  	0.011051 
2495.887904  	0.010995 
2497.816720  	0.010975 
2499.745536  	0.011000 
2501.674352  	0.011206 
2503.603168  	0.011292 
2505.531984  	0.011559 
2507.460800  	0.011556 
2509.389616  	0.011359 
2511.318432  	0.011246 
2513.247248  	0.011322 
2515.176064  	0.011342 
2517.104880  	0.011606 
2519.033696  	0.011806 
2520.962512  	0.011691 
2522.891328  	0.011798 
2524.820144  	0.011918 
2526.748960  	0.011952 
2528.677776  	0.012047 
2530.606592  	0.011974 
2532.535408  	0.012005 
2534.464224  	0.012327 
2536.393040  	0.012476 
2538.321856  	0.012350 
2540.250672  	0.012342 
2542.179488  	0.012358 
2544.108304  	0.012570 
2546.037120  	0.012552 
2547.965936  	0.012703 
2549.894752  	0.012882 
2551.823568  	0.012934 
2553.752384  	0.012963 
2555.681200  	0.012948 
2557.610016  	0.012947 
2559.538832  	0.012984 
2561.467648  	0.013038 
2563.396464  	0.013341 
2565.325280  	0.013601 
2567.254096  	0.013577 
2569.182912  	0.013393 
2571.111728  	0.013322 
2573.040544  	0.013165 
2574.969360  	0.013091 
2576.898176  	0.013405 
2578.826992  	0.013771 
2580.755808  	0.013617 
2582.684624  	0.013378 
2584.613440  	0.013423 
2586.542256  	0.013845 
2588.471072  	0.013926 
2590.399888  	0.013798 
2592.328704  	0.013810 
2594.257520  	0.013902 
2596.186336  	0.014208 
2598.115152  	0.014376 
2600.043968  	0.014342 
2601.972784  	0.014336 
2603.901600  	0.014450 
2605.830416  	0.014558 
2607.759232  	0.014370 
2609.688048  	0.014475 
2611.616864  	0.014764 
2613.545680  	0.014879 
2615.474496  	0.014846 
2617.403312  	0.014724 
2619.332128  	0.014913 
2621.260944  	0.015129 
2623.189760  	0.015080 
2625.118576  	0.015110 
2627.047392  	0.015332 
2628.976208  	0.015697 
2630.905024  	0.015753 
2632.833840  	0.015811 
2634.762656  	0.015878 
2636.691472  	0.015887 
2638.620288  	0.015845 
2640.549104  	0.015881 
2642.477920  	0.015923 
2644.406736  	0.016014 
2646.335552  	0.016350 
2648.264368  	0.016456 
2650.193184  	0.016383 
2652.122000  	0.016494 
2654.050816  	0.016623 
2655.979632  	0.016593 
2657.908448  	0.016617 
2659.837264  	0.016746 
2661.766080  	0.016737 
2663.694896  	0.016723 
2665.623712  	0.016675 
2667.552528  	0.016673 
2669.481344  	0.016853 
2671.410160  	0.017110 
2673.338976  	0.017267 
2675.267792  	0.017347 
2677.196608  	0.017399 
2679.125424  	0.017499 
2681.054240  	0.017507 
2682.983056  	0.017543 
2684.911872  	0.017730 
2686.840688  	0.017952 
2688.769504  	0.018049 
2690.698320  	0.018002 
2692.627136  	0.017980 
2694.555952  	0.018095 
2696.484768  	0.018116 
2698.413584  	0.018160 
2700.342400  	0.018210 
2702.271216  	0.018349 
2704.200032  	0.018495 
2706.128848  	0.018616 
2708.057664  	0.018726 
2709.986480  	0.018796 
2711.915296  	0.018828 
2713.844112  	0.018863 
2715.772928  	0.019007 
2717.701744  	0.019196 
2719.630560  	0.019261 
2721.559376  	0.019309 
2723.488192  	0.019293 
2725.417008  	0.019454 
2727.345824  	0.019653 
2729.274640  	0.019635 
2731.203456  	0.019571 
2733.132272  	0.019699 
2735.061088  	0.019873 
2736.989904  	0.019940 
2738.918720  	0.019926 
2740.847536  	0.019879 
2742.776352  	0.019994 
2744.705168  	0.020153 
2746.633984  	0.020106 
2748.562800  	0.020172 
2750.491616  	0.020346 
2752.420432  	0.020488 
2754.349248  	0.020508 
2756.278064  	0.020515 
2758.206880  	0.020585 
2760.135696  	0.020736 
2762.064512  	0.020668 
2763.993328  	0.020562 
2765.922144  	0.020735 
2767.850960  	0.020819 
2769.779776  	0.020734 
2771.708592  	0.020747 
2773.637408  	0.020828 
2775.566224  	0.020901 
2777.495040  	0.020916 
2779.423856  	0.020988 
2781.352672  	0.021101 
2783.281488  	0.021210 
2785.210304  	0.021147 
2787.139120  	0.021202 
2789.067936  	0.021377 
2790.996752  	0.021488 
2792.925568  	0.021647 
2794.854384  	0.021762 
2796.783200  	0.021753 
2798.712016  	0.021672 
2800.640832  	0.021693 
2802.569648  	0.021873 
2804.498464  	0.022044 
2806.427280  	0.022113 
2808.356096  	0.022091 
2810.284912  	0.022176 
2812.213728  	0.022184 
2814.142544  	0.022191 
2816.071360  	0.022285 
2818.000176  	0.022197 
2819.928992  	0.022135 
2821.857808  	0.022183 
2823.786624  	0.022177 
2825.715440  	0.022156 
2827.644256  	0.022053 
2829.573072  	0.022032 
2831.501888  	0.021940 
2833.430704  	0.021778 
2835.359520  	0.021615 
2837.288336  	0.021544 
2839.217152  	0.021417 
2841.145968  	0.021165 
2843.074784  	0.020963 
2845.003600  	0.020962 
2846.932416  	0.020938 
2848.861232  	0.020832 
2850.790048  	0.020628 
2852.718864  	0.020238 
2854.647680  	0.019835 
2856.576496  	0.019554 
2858.505312  	0.019186 
2860.434128  	0.018829 
2862.362944  	0.018421 
2864.291760  	0.017891 
2866.220576  	0.017377 
2868.149392  	0.017214 
2870.078208  	0.017393 
2872.007024  	0.017519 
2873.935840  	0.017695 
2875.864656  	0.017790 
2877.793472  	0.017755 
2879.722288  	0.017614 
2881.651104  	0.017344 
2883.579920  	0.017134 
2885.508736  	0.017246 
2887.437552  	0.017436 
2889.366368  	0.017460 
2891.295184  	0.017205 
2893.224000  	0.016988 
2895.152816  	0.017120 
2897.081632  	0.016816 
2899.010448  	0.015662 
2900.939264  	0.014940 
2902.868080  	0.015817 
2904.796896  	0.016670 
2906.725712  	0.017038 
2908.654528  	0.017378 
2910.583344  	0.017704 
2912.512160  	0.018452 
2914.440976  	0.019420 
2916.369792  	0.020059 
2918.298608  	0.020353 
2920.227424  	0.020564 
2922.156240  	0.021078 
2924.085056  	0.021642 
2926.013872  	0.022273 
2927.942688  	0.022936 
2929.871504  	0.023537 
2931.800320  	0.023989 
2933.729136  	0.024323 
2935.657952  	0.024637 
2937.586768  	0.024956 
2939.515584  	0.024968 
2941.444400  	0.024922 
2943.373216  	0.024990 
2945.302032  	0.025051 
2947.230848  	0.025041 
2949.159664  	0.024748 
2951.088480  	0.024339 
2953.017296  	0.024013 
2954.946112  	0.023500 
2956.874928  	0.022899 
2958.803744  	0.022333 
2960.732560  	0.021852 
2962.661376  	0.021372 
2964.590192  	0.020750 
2966.519008  	0.020036 
2968.447824  	0.019296 
2970.376640  	0.018758 
2972.305456  	0.018375 
2974.234272  	0.018291 
2976.163088  	0.018322 
2978.091904  	0.018251 
2980.020720  	0.018186 
2981.949536  	0.018186 
2983.878352  	0.017836 
2985.807168  	0.017218 
2987.735984  	0.016745 
2989.664800  	0.017115 
2991.593616  	0.019134 
2993.522432  	0.020253 
2995.451248  	0.020441 
2997.380064  	0.020991 
2999.308880  	0.021897 
3001.237696  	0.022703 
3003.166512  	0.023446 
3005.095328  	0.024298 
3007.024144  	0.025180 
3008.952960  	0.026009 
3010.881776  	0.026900 
3012.810592  	0.027764 
3014.739408  	0.028494 
3016.668224  	0.029210 
3018.597040  	0.029957 
3020.525856  	0.030560 
3022.454672  	0.031143 
3024.383488  	0.031898 
3026.312304  	0.032498 
3028.241120  	0.032904 
3030.169936  	0.033246 
3032.098752  	0.033807 
3034.027568  	0.034147 
3035.956384  	0.034362 
3037.885200  	0.034821 
3039.814016  	0.035339 
3041.742832  	0.035775 
3043.671648  	0.036043 
3045.600464  	0.036266 
3047.529280  	0.036539 
3049.458096  	0.036772 
3051.386912  	0.036865 
3053.315728  	0.037095 
3055.244544  	0.037446 
3057.173360  	0.037920 
3059.102176  	0.038247 
3061.030992  	0.038380 
3062.959808  	0.038622 
3064.888624  	0.039038 
3066.817440  	0.039232 
3068.746256  	0.039366 
3070.675072  	0.039564 
3072.603888  	0.039972 
3074.532704  	0.040443 
3076.461520  	0.040765 
3078.390336  	0.040915 
3080.319152  	0.041146 
3082.247968  	0.041441 
3084.176784  	0.041750 
3086.105600  	0.041972 
3088.034416  	0.042219 
3089.963232  	0.042651 
3091.892048  	0.043002 
3093.820864  	0.043107 
3095.749680  	0.043287 
3097.678496  	0.043382 
3099.607312  	0.043724 
3101.536128  	0.044070 
3103.464944  	0.044279 
3105.393760  	0.044483 
3107.322576  	0.044800 
3109.251392  	0.045087 
3111.180208  	0.045259 
3113.109024  	0.045297 
3115.037840  	0.045423 
3116.966656  	0.045696 
3118.895472  	0.046008 
3120.824288  	0.046124 
3122.753104  	0.046243 
3124.681920  	0.046468 
3126.610736  	0.046592 
3128.539552  	0.046722 
3130.468368  	0.046764 
3132.397184  	0.046900 
3134.326000  	0.047075 
3136.254816  	0.047211 
3138.183632  	0.047353 
3140.112448  	0.047406 
3142.041264  	0.047515 
3143.970080  	0.047693 
3145.898896  	0.047846 
3147.827712  	0.048122 
3149.756528  	0.048453 
3151.685344  	0.048847 
3153.614160  	0.049093 
3155.542976  	0.049023 
3157.471792  	0.049125 
3159.400608  	0.049546 
3161.329424  	0.049838 
3163.258240  	0.050046 
3165.187056  	0.050319 
3167.115872  	0.050486 
3169.044688  	0.050577 
3170.973504  	0.050598 
3172.902320  	0.050686 
3174.831136  	0.050886 
3176.759952  	0.050977 
3178.688768  	0.051145 
3180.617584  	0.051207 
3182.546400  	0.051014 
3184.475216  	0.051227 
3186.404032  	0.051524 
3188.332848  	0.051550 
3190.261664  	0.051751 
3192.190480  	0.051839 
3194.119296  	0.051625 
3196.048112  	0.051525 
3197.976928  	0.051766 
3199.905744  	0.051744 
3201.834560  	0.051756 
3203.763376  	0.051850 
3205.692192  	0.051904 
3207.621008  	0.051918 
3209.549824  	0.051735 
3211.478640  	0.051549 
3213.407456  	0.051336 
3215.336272  	0.051274 
3217.265088  	0.051092 
3219.193904  	0.050920 
3221.122720  	0.050763 
3223.051536  	0.050616 
3224.980352  	0.050453 
3226.909168  	0.050205 
3228.837984  	0.049975 
3230.766800  	0.050108 
3232.695616  	0.050296 
3234.624432  	0.050211 
3236.553248  	0.050054 
3238.482064  	0.049887 
3240.410880  	0.049716 
3242.339696  	0.049548 
3244.268512  	0.049403 
3246.197328  	0.049421 
3248.126144  	0.049489 
3250.054960  	0.049532 
3251.983776  	0.049524 
3253.912592  	0.049643 
3255.841408  	0.049640 
3257.770224  	0.049766 
3259.699040  	0.049935 
3261.627856  	0.049928 
3263.556672  	0.049806 
3265.485488  	0.049595 
3267.414304  	0.049818 
3269.343120  	0.050052 
3271.271936  	0.050156 
3273.200752  	0.050303 
3275.129568  	0.050480 
3277.058384  	0.050496 
3278.987200  	0.050549 
3280.916016  	0.050574 
3282.844832  	0.050579 
3284.773648  	0.050661 
3286.702464  	0.050715 
3288.631280  	0.050827 
3290.560096  	0.050995 
3292.488912  	0.051225 
3294.417728  	0.051242 
3296.346544  	0.051288 
3298.275360  	0.051442 
3300.204176  	0.051751 
3302.132992  	0.051839 
3304.061808  	0.051757 
3305.990624  	0.051951 
3307.919440  	0.052082 
3309.848256  	0.052066 
3311.777072  	0.052140 
3313.705888  	0.052365 
3315.634704  	0.052571 
3317.563520  	0.052682 
3319.492336  	0.052754 
3321.421152  	0.053055 
3323.349968  	0.053257 
3325.278784  	0.053311 
3327.207600  	0.053450 
3329.136416  	0.053436 
3331.065232  	0.053278 
3332.994048  	0.053184 
3334.922864  	0.053259 
3336.851680  	0.053312 
3338.780496  	0.053313 
3340.709312  	0.053195 
3342.638128  	0.053040 
3344.566944  	0.052835 
3346.495760  	0.052722 
3348.424576  	0.052663 
3350.353392  	0.052576 
3352.282208  	0.052386 
3354.211024  	0.052192 
3356.139840  	0.052059 
3358.068656  	0.051831 
3359.997472  	0.051713 
3361.926288  	0.051432 
3363.855104  	0.051016 
3365.783920  	0.050854 
3367.712736  	0.050819 
3369.641552  	0.050403 
3371.570368  	0.050016 
3373.499184  	0.049756 
3375.428000  	0.049514 
3377.356816  	0.049329 
3379.285632  	0.049146 
3381.214448  	0.049088 
3383.143264  	0.048834 
3385.072080  	0.048539 
3387.000896  	0.048275 
3388.929712  	0.048059 
3390.858528  	0.047836 
3392.787344  	0.047686 
3394.716160  	0.047390 
3396.644976  	0.047026 
3398.573792  	0.046718 
3400.502608  	0.046342 
3402.431424  	0.045901 
3404.360240  	0.045480 
3406.289056  	0.045255 
3408.217872  	0.045160 
3410.146688  	0.044977 
3412.075504  	0.044940 
3414.004320  	0.044718 
3415.933136  	0.044162 
3417.861952  	0.043599 
3419.790768  	0.043453 
3421.719584  	0.043251 
3423.648400  	0.042891 
3425.577216  	0.042749 
3427.506032  	0.042587 
3429.434848  	0.042111 
3431.363664  	0.041644 
3433.292480  	0.041491 
3435.221296  	0.041382 
3437.150112  	0.041006 
3439.078928  	0.040615 
3441.007744  	0.040287 
3442.936560  	0.040189 
3444.865376  	0.039864 
3446.794192  	0.039321 
3448.723008  	0.039131 
3450.651824  	0.038759 
3452.580640  	0.038302 
3454.509456  	0.037906 
3456.438272  	0.037647 
3458.367088  	0.037464 
3460.295904  	0.037162 
3462.224720  	0.036666 
3464.153536  	0.036168 
3466.082352  	0.035931 
3468.011168  	0.035466 
3469.939984  	0.035118 
3471.868800  	0.034838 
3473.797616  	0.034353 
3475.726432  	0.033875 
3477.655248  	0.033375 
3479.584064  	0.032973 
3481.512880  	0.032775 
3483.441696  	0.032189 
3485.370512  	0.031435 
3487.299328  	0.031164 
3489.228144  	0.031009 
3491.156960  	0.030524 
3493.085776  	0.030140 
3495.014592  	0.029824 
3496.943408  	0.029532 
3498.872224  	0.029152 
3500.801040  	0.028933 
3502.729856  	0.028774 
3504.658672  	0.028367 
3506.587488  	0.027583 
3508.516304  	0.027289 
3510.445120  	0.027238 
3512.373936  	0.026875 
3514.302752  	0.026509 
3516.231568  	0.026159 
3518.160384  	0.025725 
3520.089200  	0.025506 
3522.018016  	0.025419 
3523.946832  	0.025318 
3525.875648  	0.024907 
3527.804464  	0.024396 
3529.733280  	0.024098 
3531.662096  	0.023761 
3533.590912  	0.023256 
3535.519728  	0.023045 
3537.448544  	0.023029 
3539.377360  	0.022611 
3541.306176  	0.022067 
3543.234992  	0.021823 
3545.163808  	0.022404 
3547.092624  	0.022332 
3549.021440  	0.021163 
3550.950256  	0.020419 
3552.879072  	0.020381 
3554.807888  	0.020128 
3556.736704  	0.019679 
3558.665520  	0.019453 
3560.594336  	0.019579 
3562.523152  	0.019254 
3564.451968  	0.018770 
3566.380784  	0.019015 
3568.309600  	0.019364 
3570.238416  	0.018413 
3572.167232  	0.017410 
3574.096048  	0.016991 
3576.024864  	0.016542 
3577.953680  	0.016180 
3579.882496  	0.016077 
3581.811312  	0.015897 
3583.740128  	0.015241 
3585.668944  	0.014579 
3587.597760  	0.015020 
3589.526576  	0.014859 
3591.455392  	0.013587 
3593.384208  	0.013157 
3595.313024  	0.013053 
3597.241840  	0.012571 
3599.170656  	0.011723 
3601.099472  	0.011459 
3603.028288  	0.011449 
3604.957104  	0.010795 
3606.885920  	0.010081 
3608.814736  	0.010284 
3610.743552  	0.009809 
3612.672368  	0.008947 
3614.601184  	0.008776 
3616.530000  	0.008019 
3618.458816  	0.007434 
3620.387632  	0.007476 
3622.316448  	0.007006 
3624.245264  	0.006284 
3626.174080  	0.005130 
3628.102896  	0.004170 
3630.031712  	0.005492 
3631.960528  	0.005110 
3633.889344  	0.004167 
3635.818160  	0.003513 
3637.746976  	0.003071 
3639.675792  	0.003000 
3641.604608  	0.002823 
3643.533424  	0.002058 
3645.462240  	0.000317 
3647.391056  	-0.001118 
3649.319872  	-0.001654 
3651.248688  	-0.000413 
3653.177504  	-0.000509 
3655.106320  	-0.001846 
3657.035136  	-0.001845 
3658.963952  	-0.001975 
3660.892768  	-0.002524 
3662.821584  	-0.002839 
3664.750400  	-0.003165 
3666.679216  	-0.004116 
3668.608032  	-0.005685 
3670.536848  	-0.005457 
3672.465664  	-0.004952 
3674.394480  	-0.006716 
3676.323296  	-0.005695 
3678.252112  	-0.004062 
3680.180928  	-0.003694 
3682.109744  	-0.003966 
3684.038560  	-0.004468 
3685.967376  	-0.005246 
3687.896192  	-0.006367 
3689.825008  	-0.005837 
3691.753824  	-0.004533 
3693.682640  	-0.004087 
3695.611456  	-0.004046 
3697.540272  	-0.003611 
3699.469088  	-0.003800 
3701.397904  	-0.003430 
3703.326720  	-0.002518 
3705.255536  	-0.002663 
3707.184352  	-0.003478 
3709.113168  	-0.004273 
3711.041984  	-0.004023 
3712.970800  	-0.002477 
3714.899616  	-0.001696 
3716.828432  	-0.002100 
3718.757248  	-0.002514 
3720.686064  	-0.002841 
3722.614880  	-0.002325 
3724.543696  	-0.001718 
3726.472512  	-0.001475 
3728.401328  	-0.001985 
3730.330144  	-0.003683 
3732.258960  	-0.004386 
3734.187776  	-0.003017 
3736.116592  	-0.001248 
3738.045408  	-0.001661 
3739.974224  	-0.002387 
3741.903040  	-0.003049 
3743.831856  	-0.003111 
3745.760672  	-0.001669 
3747.689488  	-0.003338 
3749.618304  	-0.004771 
3751.547120  	-0.003666 
3753.475936  	-0.001317 
3755.404752  	-0.001345 
3757.333568  	-0.002160 
3759.262384  	-0.002172 
3761.191200  	-0.001393 
3763.120016  	-0.001519 
3765.048832  	-0.001842 
3766.977648  	-0.001931 
3768.906464  	-0.002464 
3770.835280  	-0.001560 
3772.764096  	-0.000955 
3774.692912  	-0.001217 
3776.621728  	-0.001770 
3778.550544  	-0.002357 
3780.479360  	-0.001943 
3782.408176  	-0.001736 
3784.336992  	-0.001814 
3786.265808  	-0.001534 
3788.194624  	-0.001424 
3790.123440  	-0.001494 
3792.052256  	-0.001660 
3793.981072  	-0.002163 
3795.909888  	-0.002608 
3797.838704  	-0.002368 
3799.767520  	-0.003699 
3801.696336  	-0.003729 
3803.625152  	-0.002452 
3805.553968  	-0.003255 
3807.482784  	-0.002513 
3809.411600  	-0.001333 
3811.340416  	-0.001292 
3813.269232  	-0.002186 
3815.198048  	-0.003459 
3817.126864  	-0.002657 
3819.055680  	-0.003356 
3820.984496  	-0.003617 
3822.913312  	-0.001699 
3824.842128  	-0.001980 
3826.770944  	-0.002198 
3828.699760  	-0.002068 
3830.628576  	-0.002731 
3832.557392  	-0.002654 
3834.486208  	-0.002946 
3836.415024  	-0.003831 
3838.343840  	-0.003447 
3840.272656  	-0.002472 
3842.201472  	-0.002210 
3844.130288  	-0.001934 
3846.059104  	-0.001652 
3847.987920  	-0.002100 
3849.916736  	-0.003001 
3851.845552  	-0.004517 
3853.774368  	-0.003265 
3855.703184  	-0.001439 
3857.632000  	-0.001695 
3859.560816  	-0.002211 
3861.489632  	-0.002543 
3863.418448  	-0.002614 
3865.347264  	-0.001987 
3867.276080  	-0.002211 
3869.204896  	-0.002758 
3871.133712  	-0.001400 
3873.062528  	-0.001845 
3874.991344  	-0.001533 
3876.920160  	-0.001594 
3878.848976  	-0.002266 
3880.777792  	-0.001698 
3882.706608  	-0.001394 
3884.635424  	-0.002061 
3886.564240  	-0.001257 
3888.493056  	-0.001504 
3890.421872  	-0.002057 
3892.350688  	-0.001477 
3894.279504  	-0.001288 
3896.208320  	-0.001647 
3898.137136  	-0.001975 
3900.065952  	-0.001781 
3901.994768  	-0.001534 
3903.923584  	-0.001145 
3905.852400  	-0.000651 
3907.781216  	-0.001005 
3909.710032  	-0.001633 
3911.638848  	-0.001649 
3913.567664  	-0.001391 
3915.496480  	-0.001379 
3917.425296  	-0.000891 
3919.354112  	-0.000771 
3921.282928  	-0.000892 
3923.211744  	-0.001128 
3925.140560  	-0.000977 
3927.069376  	-0.001170 
3928.998192  	-0.001499 
3930.927008  	-0.001041 
3932.855824  	-0.000395 
3934.784640  	-0.000674 
3936.713456  	-0.000996 
3938.642272  	-0.000978 
3940.571088  	-0.001209 
3942.499904  	-0.000805 
3944.428720  	-0.000512 
3946.357536  	-0.000941 
3948.286352  	-0.000959 
3950.215168  	-0.001151 
3952.143984  	-0.001478 
3954.072800  	-0.001555 
3956.001616  	-0.001428 
3957.930432  	-0.001212 
3959.859248  	-0.001072 
3961.788064  	-0.000997 
3963.716880  	-0.001058 
3965.645696  	-0.001305 
3967.574512  	-0.001238 
3969.503328  	-0.001036 
3971.432144  	-0.001139 
3973.360960  	-0.001311 
3975.289776  	-0.001041 
3977.218592  	-0.000929 
3979.147408  	-0.001026 
3981.076224  	-0.001175 
3983.005040  	-0.001308 
3984.933856  	-0.001401 
3986.862672  	-0.001306 
3988.791488  	-0.001190 
3990.720304  	-0.001175 
3992.649120  	-0.001169 
3994.577936  	-0.001354 
3996.506752  	-0.001418 
3998.435568  	-0.001251 
4000.364384  	-0.001164 