##TITLE=No Description
##DATA TYPE=INFRARED SPECTRUM
##XUNITS=1/CM
##YUNITS=Abs
399.264912  	0.560022 
401.193728  	0.531659 
403.122544  	0.530560 
405.051360  	0.542417 
406.980176  	0.537364 
408.908992  	0.524604 
410.837808  	0.518833 
412.766624  	0.527426 
414.695440  	0.522564 
416.624256  	0.509003 
418.553072  	0.520843 
420.481888  	0.516612 
422.410704  	0.510613 
424.339520  	0.497331 
426.268336  	0.499980 
428.197152  	0.497183 
430.125968  	0.491351 
432.054784  	0.484154 
433.983600  	0.488317 
435.912416  	0.484398 
437.841232  	0.486373 
439.770048  	0.484255 
441.698864  	0.484270 
443.627680  	0.480315 
445.556496  	0.476097 
447.485312  	0.472617 
449.414128  	0.473527 
451.342944  	0.468632 
453.271760  	0.466880 
455.200576  	0.462481 
457.129392  	0.457166 
459.058208  	0.454401 
460.987024  	0.460419 
462.915840  	0.463272 
464.844656  	0.464757 
466.773472  	0.461429 
468.702288  	0.463380 
470.631104  	0.459764 
472.559920  	0.462031 
474.488736  	0.457382 
476.417552  	0.450850 
478.346368  	0.446941 
480.275184  	0.448997 
482.204000  	0.447632 
484.132816  	0.448655 
486.061632  	0.445850 
487.990448  	0.449119 
489.919264  	0.447795 
491.848080  	0.444446 
493.776896  	0.441209 
495.705712  	0.440963 
497.634528  	0.437970 
499.563344  	0.440949 
501.492160  	0.441106 
503.420976  	0.440160 
505.349792  	0.437238 
507.278608  	0.438376 
509.207424  	0.436392 
511.136240  	0.437426 
513.065056  	0.437271 
514.993872  	0.435138 
516.922688  	0.432723 
518.851504  	0.433697 
520.780320  	0.430638 
522.709136  	0.433643 
524.637952  	0.432097 
526.566768  	0.428775 
528.495584  	0.426816 
530.424400  	0.425124 
532.353216  	0.421754 
534.282032  	0.420599 
536.210848  	0.417295 
538.139664  	0.414650 
540.068480  	0.412611 
541.997296  	0.410854 
543.926112  	0.407813 
545.854928  	0.406187 
547.783744  	0.401998 
549.712560  	0.398215 
551.641376  	0.395275 
553.570192  	0.394060 
555.499008  	0.389861 
557.427824  	0.386714 
559.356640  	0.384650 
561.285456  	0.383551 
563.214272  	0.380662 
565.143088  	0.378293 
567.071904  	0.374992 
569.000720  	0.372431 
570.929536  	0.369156 
572.858352  	0.367240 
574.787168  	0.364628 
576.715984  	0.362250 
578.644800  	0.359227 
580.573616  	0.356703 
582.502432  	0.353967 
584.431248  	0.352250 
586.360064  	0.349841 
588.288880  	0.347292 
590.217696  	0.345253 
592.146512  	0.343860 
594.075328  	0.340587 
596.004144  	0.337926 
597.932960  	0.336983 
599.861776  	0.336714 
601.790592  	0.335072 
603.719408  	0.333758 
605.648224  	0.331890 
607.577040  	0.331215 
609.505856  	0.330181 
611.434672  	0.328592 
613.363488  	0.325745 
615.292304  	0.324203 
617.221120  	0.323504 
619.149936  	0.322753 
621.078752  	0.320264 
623.007568  	0.318026 
624.936384  	0.315798 
626.865200  	0.314989 
628.794016  	0.314000 
630.722832  	0.312120 
632.651648  	0.310205 
634.580464  	0.309400 
636.509280  	0.309473 
638.438096  	0.308542 
640.366912  	0.307276 
642.295728  	0.306202 
644.224544  	0.304367 
646.153360  	0.302525 
648.082176  	0.300749 
650.010992  	0.299085 
651.939808  	0.295828 
653.868624  	0.292571 
655.797440  	0.289195 
657.726256  	0.286687 
659.655072  	0.283847 
661.583888  	0.281406 
663.512704  	0.278012 
665.441520  	0.274985 
667.370336  	0.274271 
669.299152  	0.273201 
671.227968  	0.268520 
673.156784  	0.265608 
675.085600  	0.263444 
677.014416  	0.261968 
678.943232  	0.260666 
680.872048  	0.259047 
682.800864  	0.257341 
684.729680  	0.255851 
686.658496  	0.253530 
688.587312  	0.251389 
690.516128  	0.249018 
692.444944  	0.247645 
694.373760  	0.245732 
696.302576  	0.243878 
698.231392  	0.241671 
700.160208  	0.239421 
702.089024  	0.237023 
704.017840  	0.235401 
705.946656  	0.232765 
707.875472  	0.230345 
709.804288  	0.228499 
711.733104  	0.226794 
713.661920  	0.224865 
715.590736  	0.223854 
717.519552  	0.222700 
719.448368  	0.222404 
721.377184  	0.222480 
723.306000  	0.221830 
725.234816  	0.221093 
727.163632  	0.220000 
729.092448  	0.217728 
731.021264  	0.215778 
732.950080  	0.213472 
734.878896  	0.211464 
736.807712  	0.209351 
738.736528  	0.207836 
740.665344  	0.206540 
742.594160  	0.205161 
744.522976  	0.203368 
746.451792  	0.201973 
748.380608  	0.200777 
750.309424  	0.199852 
752.238240  	0.198435 
754.167056  	0.197530 
756.095872  	0.196427 
758.024688  	0.194981 
759.953504  	0.193840 
761.882320  	0.193381 
763.811136  	0.192898 
765.739952  	0.191984 
767.668768  	0.190516 
769.597584  	0.188547 
771.526400  	0.187677 
773.455216  	0.188143 
775.384032  	0.188794 
777.312848  	0.190099 
779.241664  	0.191438 
781.170480  	0.191371 
783.099296  	0.189120 
785.028112  	0.185833 
786.956928  	0.181687 
788.885744  	0.178251 
790.814560  	0.175644 
792.743376  	0.173840 
794.672192  	0.172063 
796.601008  	0.171027 
798.529824  	0.169692 
800.458640  	0.167253 
802.387456  	0.164508 
804.316272  	0.162797 
806.245088  	0.161545 
808.173904  	0.160253 
810.102720  	0.159440 
812.031536  	0.158942 
813.960352  	0.158111 
815.889168  	0.157365 
817.817984  	0.156798 
819.746800  	0.156236 
821.675616  	0.155401 
823.604432  	0.154575 
825.533248  	0.153338 
827.462064  	0.152018 
829.390880  	0.150835 
831.319696  	0.149699 
833.248512  	0.148368 
835.177328  	0.147153 
837.106144  	0.145389 
839.034960  	0.142984 
840.963776  	0.140530 
842.892592  	0.138653 
844.821408  	0.136729 
846.750224  	0.134898 
848.679040  	0.133576 
850.607856  	0.132266 
852.536672  	0.130997 
854.465488  	0.129707 
856.394304  	0.128750 
858.323120  	0.127889 
860.251936  	0.126786 
862.180752  	0.125487 
864.109568  	0.124307 
866.038384  	0.123329 
867.967200  	0.122136 
869.896016  	0.121001 
871.824832  	0.119622 
873.753648  	0.118635 
875.682464  	0.118411 
877.611280  	0.118599 
879.540096  	0.118689 
881.468912  	0.118707 
883.397728  	0.118509 
885.326544  	0.118055 
887.255360  	0.117656 
889.184176  	0.117185 
891.112992  	0.116577 
893.041808  	0.115143 
894.970624  	0.113243 
896.899440  	0.111357 
898.828256  	0.109001 
900.757072  	0.106753 
902.685888  	0.104711 
904.614704  	0.103314 
906.543520  	0.102438 
908.472336  	0.102365 
910.401152  	0.102912 
912.329968  	0.103952 
914.258784  	0.104898 
916.187600  	0.105826 
918.116416  	0.106370 
920.045232  	0.106151 
921.974048  	0.105253 
923.902864  	0.104450 
925.831680  	0.103474 
927.760496  	0.102428 
929.689312  	0.101346 
931.618128  	0.100812 
933.546944  	0.100417 
935.475760  	0.099751 
937.404576  	0.099282 
939.333392  	0.099155 
941.262208  	0.099226 
943.191024  	0.099877 
945.119840  	0.101303 
947.048656  	0.103153 
948.977472  	0.105874 
950.906288  	0.109209 
952.835104  	0.112762 
954.763920  	0.116334 
956.692736  	0.119684 
958.621552  	0.122480 
960.550368  	0.124233 
962.479184  	0.124977 
964.408000  	0.123909 
966.336816  	0.121607 
968.265632  	0.117722 
970.194448  	0.113036 
972.123264  	0.107533 
974.052080  	0.101505 
975.980896  	0.095740 
977.909712  	0.090359 
979.838528  	0.085789 
981.767344  	0.081915 
983.696160  	0.079107 
985.624976  	0.077410 
987.553792  	0.077168 
989.482608  	0.077973 
991.411424  	0.079470 
993.340240  	0.082024 
995.269056  	0.085426 
997.197872  	0.089047 
999.126688  	0.092626 
1001.055504  	0.096478 
1002.984320  	0.100176 
1004.913136  	0.103849 
1006.841952  	0.106999 
1008.770768  	0.110096 
1010.699584  	0.112605 
1012.628400  	0.114401 
1014.557216  	0.115563 
1016.486032  	0.116308 
1018.414848  	0.116828 
1020.343664  	0.117245 
1022.272480  	0.117534 
1024.201296  	0.117690 
1026.130112  	0.118445 
1028.058928  	0.119155 
1029.987744  	0.118945 
1031.916560  	0.119910 
1033.845376  	0.121903 
1035.774192  	0.124406 
1037.703008  	0.126992 
1039.631824  	0.129933 
1041.560640  	0.133892 
1043.489456  	0.139299 
1045.418272  	0.145704 
1047.347088  	0.153299 
1049.275904  	0.161023 
1051.204720  	0.168591 
1053.133536  	0.174918 
1055.062352  	0.180331 
1056.991168  	0.184570 
1058.919984  	0.186595 
1060.848800  	0.186828 
1062.777616  	0.187716 
1064.706432  	0.188368 
1066.635248  	0.187920 
1068.564064  	0.185029 
1070.492880  	0.182426 
1072.421696  	0.179944 
1074.350512  	0.177580 
1076.279328  	0.175433 
1078.208144  	0.173827 
1080.136960  	0.172398 
1082.065776  	0.171099 
1083.994592  	0.169347 
1085.923408  	0.167879 
1087.852224  	0.165566 
1089.781040  	0.163242 
1091.709856  	0.159524 
1093.638672  	0.155245 
1095.567488  	0.150451 
1097.496304  	0.145596 
1099.425120  	0.140284 
1101.353936  	0.134641 
1103.282752  	0.128302 
1105.211568  	0.121757 
1107.140384  	0.115441 
1109.069200  	0.109223 
1110.998016  	0.103296 
1112.926832  	0.097610 
1114.855648  	0.091785 
1116.784464  	0.086261 
1118.713280  	0.081409 
1120.642096  	0.077021 
1122.570912  	0.072753 
1124.499728  	0.068825 
1126.428544  	0.065204 
1128.357360  	0.061896 
1130.286176  	0.058717 
1132.214992  	0.056289 
1134.143808  	0.054146 
1136.072624  	0.052166 
1138.001440  	0.050131 
1139.930256  	0.048102 
1141.859072  	0.046391 
1143.787888  	0.044662 
1145.716704  	0.043191 
1147.645520  	0.042129 
1149.574336  	0.041096 
1151.503152  	0.040239 
1153.431968  	0.039863 
1155.360784  	0.039735 
1157.289600  	0.039905 
1159.218416  	0.040221 
1161.147232  	0.040852 
1163.076048  	0.041468 
1165.004864  	0.042253 
1166.933680  	0.043048 
1168.862496  	0.043971 
1170.791312  	0.045319 
1172.720128  	0.046377 
1174.648944  	0.047366 
1176.577760  	0.048620 
1178.506576  	0.049945 
1180.435392  	0.050999 
1182.364208  	0.052167 
1184.293024  	0.053481 
1186.221840  	0.054775 
1188.150656  	0.056252 
1190.079472  	0.058066 
1192.008288  	0.060273 
1193.937104  	0.062820 
1195.865920  	0.065753 
1197.794736  	0.068764 
1199.723552  	0.072402 
1201.652368  	0.076302 
1203.581184  	0.080297 
1205.510000  	0.084211 
1207.438816  	0.087999 
1209.367632  	0.091871 
1211.296448  	0.095686 
1213.225264  	0.099270 
1215.154080  	0.102318 
1217.082896  	0.105135 
1219.011712  	0.107483 
1220.940528  	0.109745 
1222.869344  	0.111392 
1224.798160  	0.112917 
1226.726976  	0.114067 
1228.655792  	0.114923 
1230.584608  	0.115455 
1232.513424  	0.115629 
1234.442240  	0.114782 
1236.371056  	0.113453 
1238.299872  	0.111769 
1240.228688  	0.110247 
1242.157504  	0.107756 
1244.086320  	0.104136 
1246.015136  	0.100436 
1247.943952  	0.096905 
1249.872768  	0.093132 
1251.801584  	0.089204 
1253.730400  	0.085199 
1255.659216  	0.081219 
1257.588032  	0.077242 
1259.516848  	0.073714 
1261.445664  	0.070214 
1263.374480  	0.066817 
1265.303296  	0.063715 
1267.232112  	0.061052 
1269.160928  	0.058859 
1271.089744  	0.057294 
1273.018560  	0.056348 
1274.947376  	0.055739 
1276.876192  	0.055245 
1278.805008  	0.054666 
1280.733824  	0.053626 
1282.662640  	0.051915 
1284.591456  	0.049736 
1286.520272  	0.047597 
1288.449088  	0.045914 
1290.377904  	0.044568 
1292.306720  	0.043538 
1294.235536  	0.042369 
1296.164352  	0.040531 
1298.093168  	0.038512 
1300.021984  	0.036531 
1301.950800  	0.034626 
1303.879616  	0.032983 
1305.808432  	0.031621 
1307.737248  	0.030400 
1309.666064  	0.029244 
1311.594880  	0.028412 
1313.523696  	0.027947 
1315.452512  	0.027687 
1317.381328  	0.027757 
1319.310144  	0.028033 
1321.238960  	0.028410 
1323.167776  	0.028897 
1325.096592  	0.029215 
1327.025408  	0.029284 
1328.954224  	0.029126 
1330.883040  	0.028768 
1332.811856  	0.028232 
1334.740672  	0.027691 
1336.669488  	0.027116 
1338.598304  	0.026777 
1340.527120  	0.026737 
1342.455936  	0.026424 
1344.384752  	0.026276 
1346.313568  	0.026538 
1348.242384  	0.027140 
1350.171200  	0.028008 
1352.100016  	0.029049 
1354.028832  	0.030058 
1355.957648  	0.031277 
1357.886464  	0.032443 
1359.815280  	0.033286 
1361.744096  	0.034385 
1363.672912  	0.036038 
1365.601728  	0.036713 
1367.530544  	0.037029 
1369.459360  	0.037592 
1371.388176  	0.037479 
1373.316992  	0.037242 
1375.245808  	0.037254 
1377.174624  	0.036451 
1379.103440  	0.035439 
1381.032256  	0.034514 
1382.961072  	0.033752 
1384.889888  	0.032768 
1386.818704  	0.032042 
1388.747520  	0.031496 
1390.676336  	0.030728 
1392.605152  	0.030532 
1394.533968  	0.030812 
1396.462784  	0.029983 
1398.391600  	0.029615 
1400.320416  	0.030759 
1402.249232  	0.030972 
1404.178048  	0.031651 
1406.106864  	0.032788 
1408.035680  	0.033576 
1409.964496  	0.034176 
1411.893312  	0.034964 
1413.822128  	0.035420 
1415.750944  	0.035374 
1417.679760  	0.035241 
1419.608576  	0.036228 
1421.537392  	0.035646 
1423.466208  	0.034549 
1425.395024  	0.033889 
1427.323840  	0.032544 
1429.252656  	0.031511 
1431.181472  	0.030794 
1433.110288  	0.030146 
1435.039104  	0.029677 
1436.967920  	0.031080 
1438.896736  	0.031620 
1440.825552  	0.031343 
1442.754368  	0.031635 
1444.683184  	0.031527 
1446.612000  	0.031415 
1448.540816  	0.032151 
1450.469632  	0.032308 
1452.398448  	0.032103 
1454.327264  	0.031305 
1456.256080  	0.031378 
1458.184896  	0.033512 
1460.113712  	0.033105 
1462.042528  	0.032228 
1463.971344  	0.032233 
1465.900160  	0.033858 
1467.828976  	0.034516 
1469.757792  	0.034932 
1471.686608  	0.036629 
1473.615424  	0.040664 
1475.544240  	0.042576 
1477.473056  	0.044195 
1479.401872  	0.044474 
1481.330688  	0.044923 
1483.259504  	0.045163 
1485.188320  	0.044448 
1487.117136  	0.043544 
1489.045952  	0.042992 
1490.974768  	0.042348 
1492.903584  	0.040164 
1494.832400  	0.037498 
1496.761216  	0.036148 
1498.690032  	0.034558 
1500.618848  	0.032647 
1502.547664  	0.030335 
1504.476480  	0.027968 
1506.405296  	0.027767 
1508.334112  	0.028685 
1510.262928  	0.026980 
1512.191744  	0.025994 
1514.120560  	0.024906 
1516.049376  	0.024799 
1517.978192  	0.025650 
1519.907008  	0.025423 
1521.835824  	0.027958 
1523.764640  	0.029119 
1525.693456  	0.029847 
1527.622272  	0.031072 
1529.551088  	0.031234 
1531.479904  	0.030623 
1533.408720  	0.031168 
1535.337536  	0.030712 
1537.266352  	0.027915 
1539.195168  	0.026806 
1541.123984  	0.027512 
1543.052800  	0.026504 
1544.981616  	0.025559 
1546.910432  	0.024565 
1548.839248  	0.023497 
1550.768064  	0.023846 
1552.696880  	0.023547 
1554.625696  	0.024077 
1556.554512  	0.023304 
1558.483328  	0.024755 
1560.412144  	0.029668 
1562.340960  	0.029026 
1564.269776  	0.029398 
1566.198592  	0.031226 
1568.127408  	0.032446 
1570.056224  	0.036518 
1571.985040  	0.038544 
1573.913856  	0.038570 
1575.842672  	0.040353 
1577.771488  	0.042636 
1579.700304  	0.041631 
1581.629120  	0.041380 
1583.557936  	0.041396 
1585.486752  	0.042241 
1587.415568  	0.043380 
1589.344384  	0.045350 
1591.273200  	0.047697 
1593.202016  	0.050665 
1595.130832  	0.053643 
1597.059648  	0.056658 
1598.988464  	0.058841 
1600.917280  	0.060744 
1602.846096  	0.061983 
1604.774912  	0.062745 
1606.703728  	0.062577 
1608.632544  	0.062528 
1610.561360  	0.062039 
1612.490176  	0.061419 
1614.418992  	0.060213 
1616.347808  	0.061800 
1618.276624  	0.064338 
1620.205440  	0.064651 
1622.134256  	0.065989 
1624.063072  	0.070515 
1625.991888  	0.073168 
1627.920704  	0.077082 
1629.849520  	0.081454 
1631.778336  	0.084310 
1633.707152  	0.086436 
1635.635968  	0.092973 
1637.564784  	0.098843 
1639.493600  	0.100377 
1641.422416  	0.102480 
1643.351232  	0.103465 
1645.280048  	0.104166 
1647.208864  	0.108211 
1649.137680  	0.108541 
1651.066496  	0.104988 
1652.995312  	0.106785 
1654.924128  	0.110731 
1656.852944  	0.107425 
1658.781760  	0.105509 
1660.710576  	0.104089 
1662.639392  	0.104134 
1664.568208  	0.103770 
1666.497024  	0.101354 
1668.425840  	0.099897 
1670.354656  	0.100682 
1672.283472  	0.099692 
1674.212288  	0.098175 
1676.141104  	0.099648 
1678.069920  	0.098952 
1679.998736  	0.098424 
1681.927552  	0.097227 
1683.856368  	0.098815 
1685.785184  	0.102456 
1687.714000  	0.100175 
1689.642816  	0.099532 
1691.571632  	0.098725 
1693.500448  	0.096249 
1695.429264  	0.095114 
1697.358080  	0.094413 
1699.286896  	0.091470 
1701.215712  	0.092214 
1703.144528  	0.088416 
1705.073344  	0.085519 
1707.002160  	0.083379 
1708.930976  	0.080105 
1710.859792  	0.076458 
1712.788608  	0.072380 
1714.717424  	0.068339 
1716.646240  	0.064700 
1718.575056  	0.061736 
1720.503872  	0.056886 
1722.432688  	0.052279 
1724.361504  	0.048227 
1726.290320  	0.044229 
1728.219136  	0.040164 
1730.147952  	0.036517 
1732.076768  	0.033033 
1734.005584  	0.031396 
1735.934400  	0.028850 
1737.863216  	0.025340 
1739.792032  	0.023019 
1741.720848  	0.021213 
1743.649664  	0.019389 
1745.578480  	0.017482 
1747.507296  	0.015876 
1749.436112  	0.015098 
1751.364928  	0.014973 
1753.293744  	0.014283 
1755.222560  	0.012786 
1757.151376  	0.012563 
1759.080192  	0.011822 
1761.009008  	0.011495 
1762.937824  	0.011661 
1764.866640  	0.010970 
1766.795456  	0.010143 
1768.724272  	0.010131 
1770.653088  	0.009445 
1772.581904  	0.010306 
1774.510720  	0.010261 
1776.439536  	0.009729 
1778.368352  	0.009316 
1780.297168  	0.009493 
1782.225984  	0.009330 
1784.154800  	0.008998 
1786.083616  	0.009112 
1788.012432  	0.008748 
1789.941248  	0.007984 
1791.870064  	0.008463 
1793.798880  	0.009105 
1795.727696  	0.008711 
1797.656512  	0.008311 
1799.585328  	0.008195 
1801.514144  	0.008309 
1803.442960  	0.008192 
1805.371776  	0.007869 
1807.300592  	0.007627 
1809.229408  	0.007411 
1811.158224  	0.007541 
1813.087040  	0.007471 
1815.015856  	0.007105 
1816.944672  	0.007138 
1818.873488  	0.007512 
1820.802304  	0.007482 
1822.731120  	0.007209 
1824.659936  	0.007212 
1826.588752  	0.007339 
1828.517568  	0.007002 
1830.446384  	0.007893 
1832.375200  	0.007729 
1834.304016  	0.007076 
1836.232832  	0.006880 
1838.161648  	0.007201 
1840.090464  	0.007011 
1842.019280  	0.006276 
1843.948096  	0.006571 
1845.876912  	0.007274 
1847.805728  	0.007107 
1849.734544  	0.007226 
1851.663360  	0.006943 
1853.592176  	0.006942 
1855.520992  	0.006958 
1857.449808  	0.007118 
1859.378624  	0.007060 
1861.307440  	0.007047 
1863.236256  	0.006561 
1865.165072  	0.006232 
1867.093888  	0.006376 
1869.022704  	0.007341 
1870.951520  	0.007441 
1872.880336  	0.007218 
1874.809152  	0.006873 
1876.737968  	0.006806 
1878.666784  	0.006578 
1880.595600  	0.006531 
1882.524416  	0.006692 
1884.453232  	0.006521 
1886.382048  	0.005969 
1888.310864  	0.006015 
1890.239680  	0.006899 
1892.168496  	0.006929 
1894.097312  	0.006327 
1896.026128  	0.006487 
1897.954944  	0.006304 
1899.883760  	0.006167 
1901.812576  	0.006224 
1903.741392  	0.006449 
1905.670208  	0.006588 
1907.599024  	0.006616 
1909.527840  	0.006469 
1911.456656  	0.006592 
1913.385472  	0.006690 
1915.314288  	0.006595 
1917.243104  	0.006310 
1919.171920  	0.006469 
1921.100736  	0.006344 
1923.029552  	0.006824 
1924.958368  	0.006460 
1926.887184  	0.006631 
1928.816000  	0.006534 
1930.744816  	0.005893 
1932.673632  	0.005848 
1934.602448  	0.006401 
1936.531264  	0.006628 
1938.460080  	0.006599 
1940.388896  	0.006040 
1942.317712  	0.005851 
1944.246528  	0.006077 
1946.175344  	0.006537 
1948.104160  	0.006426 
1950.032976  	0.006544 
1951.961792  	0.006106 
1953.890608  	0.005873 
1955.819424  	0.005546 
1957.748240  	0.005887 
1959.677056  	0.006490 
1961.605872  	0.005576 
1963.534688  	0.004612 
1965.463504  	0.006310 
1967.392320  	0.006778 
1969.321136  	0.006279 
1971.249952  	0.006741 
1973.178768  	0.007233 
1975.107584  	0.006090 
1977.036400  	0.006470 
1978.965216  	0.008281 
1980.894032  	0.007954 
1982.822848  	0.006199 
1984.751664  	0.005810 
1986.680480  	0.006533 
1988.609296  	0.006986 
1990.538112  	0.007335 
1992.466928  	0.007584 
1994.395744  	0.006636 
1996.324560  	0.006847 
1998.253376  	0.007108 
2000.182192  	0.006900 
2002.111008  	0.006884 
2004.039824  	0.006699 
2005.968640  	0.006009 
2007.897456  	0.007507 
2009.826272  	0.007104 
2011.755088  	0.005423 
2013.683904  	0.006196 
2015.612720  	0.007434 
2017.541536  	0.007382 
2019.470352  	0.006452 
2021.399168  	0.006114 
2023.327984  	0.006583 
2025.256800  	0.006497 
2027.185616  	0.006584 
2029.114432  	0.007031 
2031.043248  	0.008601 
2032.972064  	0.008853 
2034.900880  	0.008693 
2036.829696  	0.008092 
2038.758512  	0.007443 
2040.687328  	0.006762 
2042.616144  	0.006446 
2044.544960  	0.006619 
2046.473776  	0.006940 
2048.402592  	0.006942 
2050.331408  	0.008082 
2052.260224  	0.007760 
2054.189040  	0.007922 
2056.117856  	0.007679 
2058.046672  	0.007138 
2059.975488  	0.006847 
2061.904304  	0.006851 
2063.833120  	0.007557 
2065.761936  	0.008284 
2067.690752  	0.008122 
2069.619568  	0.007606 
2071.548384  	0.006268 
2073.477200  	0.006453 
2075.406016  	0.007730 
2077.334832  	0.008012 
2079.263648  	0.007383 
2081.192464  	0.007384 
2083.121280  	0.008011 
2085.050096  	0.008404 
2086.978912  	0.008007 
2088.907728  	0.007686 
2090.836544  	0.007228 
2092.765360  	0.006931 
2094.694176  	0.006899 
2096.622992  	0.006896 
2098.551808  	0.006889 
2100.480624  	0.007052 
2102.409440  	0.006946 
2104.338256  	0.007470 
2106.267072  	0.007791 
2108.195888  	0.007783 
2110.124704  	0.008042 
2112.053520  	0.008243 
2113.982336  	0.007936 
2115.911152  	0.007616 
2117.839968  	0.007466 
2119.768784  	0.007213 
2121.697600  	0.006677 
2123.626416  	0.006327 
2125.555232  	0.006202 
2127.484048  	0.006825 
2129.412864  	0.007073 
2131.341680  	0.005825 
2133.270496  	0.006145 
2135.199312  	0.006760 
2137.128128  	0.007107 
2139.056944  	0.007337 
2140.985760  	0.006693 
2142.914576  	0.006860 
2144.843392  	0.006435 
2146.772208  	0.006254 
2148.701024  	0.006392 
2150.629840  	0.006306 
2152.558656  	0.005352 
2154.487472  	0.004807 
2156.416288  	0.004634 
2158.345104  	0.006373 
2160.273920  	0.009428 
2162.202736  	0.009023 
2164.131552  	0.007528 
2166.060368  	0.008711 
2167.989184  	0.008170 
2169.918000  	0.007199 
2171.846816  	0.006828 
2173.775632  	0.007065 
2175.704448  	0.007988 
2177.633264  	0.008256 
2179.562080  	0.007668 
2181.490896  	0.007862 
2183.419712  	0.008079 
2185.348528  	0.008126 
2187.277344  	0.007793 
2189.206160  	0.007967 
2191.134976  	0.008594 
2193.063792  	0.009688 
2194.992608  	0.009830 
2196.921424  	0.009040 
2198.850240  	0.008905 
2200.779056  	0.008479 
2202.707872  	0.008282 
2204.636688  	0.008642 
2206.565504  	0.008707 
2208.494320  	0.009130 
2210.423136  	0.008488 
2212.351952  	0.007913 
2214.280768  	0.007692 
2216.209584  	0.007749 
2218.138400  	0.008494 
2220.067216  	0.008462 
2221.996032  	0.008259 
2223.924848  	0.007461 
2225.853664  	0.007750 
2227.782480  	0.008782 
2229.711296  	0.008991 
2231.640112  	0.008851 
2233.568928  	0.008389 
2235.497744  	0.008057 
2237.426560  	0.007821 
2239.355376  	0.007841 
2241.284192  	0.007868 
2243.213008  	0.008087 
2245.141824  	0.007936 
2247.070640  	0.007417 
2248.999456  	0.007547 
2250.928272  	0.008206 
2252.857088  	0.008173 
2254.785904  	0.008249 
2256.714720  	0.008854 
2258.643536  	0.008951 
2260.572352  	0.008585 
2262.501168  	0.008442 
2264.429984  	0.008673 
2266.358800  	0.009428 
2268.287616  	0.009649 
2270.216432  	0.009315 
2272.145248  	0.008946 
2274.074064  	0.009084 
2276.002880  	0.009036 
2277.931696  	0.009133 
2279.860512  	0.009394 
2281.789328  	0.009362 
2283.718144  	0.009196 
2285.646960  	0.009538 
2287.575776  	0.009990 
2289.504592  	0.009966 
2291.433408  	0.009825 
2293.362224  	0.010116 
2295.291040  	0.010445 
2297.219856  	0.010747 
2299.148672  	0.010942 
2301.077488  	0.011063 
2303.006304  	0.011457 
2304.935120  	0.011750 
2306.863936  	0.011986 
2308.792752  	0.012574 
2310.721568  	0.013550 
2312.650384  	0.014270 
2314.579200  	0.014505 
2316.508016  	0.014975 
2318.436832  	0.015760 
2320.365648  	0.017213 
2322.294464  	0.018399 
2324.223280  	0.018755 
2326.152096  	0.018627 
2328.080912  	0.018897 
2330.009728  	0.019505 
2331.938544  	0.019964 
2333.867360  	0.019558 
2335.796176  	0.019594 
2337.724992  	0.020163 
2339.653808  	0.020623 
2341.582624  	0.021214 
2343.511440  	0.021832 
2345.440256  	0.021377 
2347.369072  	0.018400 
2349.297888  	0.016136 
2351.226704  	0.017250 
2353.155520  	0.020137 
2355.084336  	0.022418 
2357.013152  	0.024172 
2358.941968  	0.024982 
2360.870784  	0.025016 
2362.799600  	0.024772 
2364.728416  	0.024039 
2366.657232  	0.023005 
2368.586048  	0.021072 
2370.514864  	0.019465 
2372.443680  	0.017998 
2374.372496  	0.016477 
2376.301312  	0.014945 
2378.230128  	0.013477 
2380.158944  	0.011798 
2382.087760  	0.010282 
2384.016576  	0.009288 
2385.945392  	0.008587 
2387.874208  	0.007968 
2389.803024  	0.007816 
2391.731840  	0.007967 
2393.660656  	0.008097 
2395.589472  	0.008201 
2397.518288  	0.008251 
2399.447104  	0.008238 
2401.375920  	0.008118 
2403.304736  	0.008182 
2405.233552  	0.008307 
2407.162368  	0.008296 
2409.091184  	0.008220 
2411.020000  	0.008272 
2412.948816  	0.008264 
2414.877632  	0.008150 
2416.806448  	0.008413 
2418.735264  	0.008726 
2420.664080  	0.008548 
2422.592896  	0.008187 
2424.521712  	0.008122 
2426.450528  	0.008173 
2428.379344  	0.008159 
2430.308160  	0.008346 
2432.236976  	0.008539 
2434.165792  	0.008710 
2436.094608  	0.008845 
2438.023424  	0.008750 
2439.952240  	0.008830 
2441.881056  	0.009038 
2443.809872  	0.008890 
2445.738688  	0.008695 
2447.667504  	0.008694 
2449.596320  	0.008778 
2451.525136  	0.009004 
2453.453952  	0.009083 
2455.382768  	0.009218 
2457.311584  	0.009286 
2459.240400  	0.009062 
2461.169216  	0.009086 
2463.098032  	0.009155 
2465.026848  	0.009116 
2466.955664  	0.009233 
2468.884480  	0.009102 
2470.813296  	0.008928 
2472.742112  	0.008931 
2474.670928  	0.009046 
2476.599744  	0.009082 
2478.528560  	0.009069 
2480.457376  	0.009284 
2482.386192  	0.009478 
2484.315008  	0.009423 
2486.243824  	0.009267 
2488.172640  	0.009015 
2490.101456  	0.009108 
2492.030272  	0.009383 
2493.959088  	0.009277 
2495.887904  	0.009025 
2497.816720  	0.009061 
2499.745536  	0.009316 
2501.674352  	0.009535 
2503.603168  	0.009482 
2505.531984  	0.009461 
2507.460800  	0.009485 
2509.389616  	0.009396 
2511.318432  	0.009184 
2513.247248  	0.009259 
2515.176064  	0.009434 
2517.104880  	0.009607 
2519.033696  	0.009804 
2520.962512  	0.009911 
2522.891328  	0.010087 
2524.820144  	0.010253 
2526.748960  	0.010178 
2528.677776  	0.010127 
2530.606592  	0.010041 
2532.535408  	0.010173 
2534.464224  	0.010338 
2536.393040  	0.010157 
2538.321856  	0.009832 
2540.250672  	0.009925 
2542.179488  	0.010084 
2544.108304  	0.010284 
2546.037120  	0.010125 
2547.965936  	0.010370 
2549.894752  	0.010612 
2551.823568  	0.010559 
2553.752384  	0.010593 
2555.681200  	0.010827 
2557.610016  	0.010999 
2559.538832  	0.010912 
2561.467648  	0.010881 
2563.396464  	0.011132 
2565.325280  	0.011430 
2567.254096  	0.011343 
2569.182912  	0.011009 
2571.111728  	0.010712 
2573.040544  	0.010620 
2574.969360  	0.010665 
2576.898176  	0.011040 
2578.826992  	0.011492 
2580.755808  	0.011383 
2582.684624  	0.011101 
2584.613440  	0.011062 
2586.542256  	0.011298 
2588.471072  	0.011384 
2590.399888  	0.011247 
2592.328704  	0.011263 
2594.257520  	0.011549 
2596.186336  	0.011854 
2598.115152  	0.011902 
2600.043968  	0.011708 
2601.972784  	0.011709 
2603.901600  	0.011810 
2605.830416  	0.011833 
2607.759232  	0.011816 
2609.688048  	0.012068 
2611.616864  	0.012174 
2613.545680  	0.012151 
2615.474496  	0.012188 
2617.403312  	0.012129 
2619.332128  	0.012247 
2621.260944  	0.012296 
2623.189760  	0.012184 
2625.118576  	0.012236 
2627.047392  	0.012427 
2628.976208  	0.012754 
2630.905024  	0.012905 
2632.833840  	0.013070 
2634.762656  	0.013040 
2636.691472  	0.012868 
2638.620288  	0.012843 
2640.549104  	0.012931 
2642.477920  	0.012983 
2644.406736  	0.013038 
2646.335552  	0.013255 
2648.264368  	0.013423 
2650.193184  	0.013528 
2652.122000  	0.013523 
2654.050816  	0.013611 
2655.979632  	0.013593 
2657.908448  	0.013523 
2659.837264  	0.013571 
2661.766080  	0.013501 
2663.694896  	0.013430 
2665.623712  	0.013327 
2667.552528  	0.013219 
2669.481344  	0.013334 
2671.410160  	0.013609 
2673.338976  	0.013713 
2675.267792  	0.013674 
2677.196608  	0.013770 
2679.125424  	0.013917 
2681.054240  	0.013922 
2682.983056  	0.013939 
2684.911872  	0.013991 
2686.840688  	0.014069 
2688.769504  	0.014172 
2690.698320  	0.014199 
2692.627136  	0.014240 
2694.555952  	0.014218 
2696.484768  	0.014127 
2698.413584  	0.014255 
2700.342400  	0.014366 
2702.271216  	0.014446 
2704.200032  	0.014640 
2706.128848  	0.014719 
2708.057664  	0.014733 
2709.986480  	0.014790 
2711.915296  	0.014874 
2713.844112  	0.014949 
2715.772928  	0.015007 
2717.701744  	0.015168 
2719.630560  	0.015232 
2721.559376  	0.015131 
2723.488192  	0.015069 
2725.417008  	0.015251 
2727.345824  	0.015406 
2729.274640  	0.015381 
2731.203456  	0.015335 
2733.132272  	0.015392 
2735.061088  	0.015563 
2736.989904  	0.015680 
2738.918720  	0.015703 
2740.847536  	0.015696 
2742.776352  	0.015815 
2744.705168  	0.016023 
2746.633984  	0.016066 
2748.562800  	0.016093 
2750.491616  	0.016171 
2752.420432  	0.016175 
2754.349248  	0.016214 
2756.278064  	0.016291 
2758.206880  	0.016267 
2760.135696  	0.016430 
2762.064512  	0.016442 
2763.993328  	0.016383 
2765.922144  	0.016457 
2767.850960  	0.016526 
2769.779776  	0.016495 
2771.708592  	0.016430 
2773.637408  	0.016375 
2775.566224  	0.016460 
2777.495040  	0.016521 
2779.423856  	0.016520 
2781.352672  	0.016584 
2783.281488  	0.016725 
2785.210304  	0.016703 
2787.139120  	0.016804 
2789.067936  	0.016939 
2790.996752  	0.016983 
2792.925568  	0.017050 
2794.854384  	0.017108 
2796.783200  	0.017181 
2798.712016  	0.017149 
2800.640832  	0.017144 
2802.569648  	0.017326 
2804.498464  	0.017443 
2806.427280  	0.017432 
2808.356096  	0.017537 
2810.284912  	0.017773 
2812.213728  	0.017777 
2814.142544  	0.017777 
2816.071360  	0.017918 
2818.000176  	0.017851 
2819.928992  	0.017800 
2821.857808  	0.017988 
2823.786624  	0.018167 
2825.715440  	0.018195 
2827.644256  	0.018143 
2829.573072  	0.018209 
2831.501888  	0.018268 
2833.430704  	0.018337 
2835.359520  	0.018337 
2837.288336  	0.018330 
2839.217152  	0.018441 
2841.145968  	0.018426 
2843.074784  	0.018470 
2845.003600  	0.018717 
2846.932416  	0.019099 
2848.861232  	0.019331 
2850.790048  	0.019394 
2852.718864  	0.019601 
2854.647680  	0.019792 
2856.576496  	0.019971 
2858.505312  	0.020098 
2860.434128  	0.020340 
2862.362944  	0.020655 
2864.291760  	0.020982 
2866.220576  	0.021216 
2868.149392  	0.021633 
2870.078208  	0.022063 
2872.007024  	0.022348 
2873.935840  	0.022670 
2875.864656  	0.023035 
2877.793472  	0.023615 
2879.722288  	0.024124 
2881.651104  	0.024535 
2883.579920  	0.024884 
2885.508736  	0.025198 
2887.437552  	0.025406 
2889.366368  	0.025590 
2891.295184  	0.025751 
2893.224000  	0.025833 
2895.152816  	0.025909 
2897.081632  	0.025980 
2899.010448  	0.026564 
2900.939264  	0.027259 
2902.868080  	0.026996 
2904.796896  	0.026627 
2906.725712  	0.026639 
2908.654528  	0.026747 
2910.583344  	0.026914 
2912.512160  	0.027260 
2914.440976  	0.027445 
2916.369792  	0.027545 
2918.298608  	0.027638 
2920.227424  	0.027824 
2922.156240  	0.028128 
2924.085056  	0.028271 
2926.013872  	0.028437 
2927.942688  	0.028854 
2929.871504  	0.029143 
2931.800320  	0.029352 
2933.729136  	0.029554 
2935.657952  	0.029644 
2937.586768  	0.029796 
2939.515584  	0.029846 
2941.444400  	0.030096 
2943.373216  	0.030527 
2945.302032  	0.030699 
2947.230848  	0.030617 
2949.159664  	0.030712 
2951.088480  	0.030960 
2953.017296  	0.031250 
2954.946112  	0.031425 
2956.874928  	0.031515 
2958.803744  	0.031489 
2960.732560  	0.031521 
2962.661376  	0.031696 
2964.590192  	0.031960 
2966.519008  	0.032307 
2968.447824  	0.032312 
2970.376640  	0.032311 
2972.305456  	0.032241 
2974.234272  	0.031965 
2976.163088  	0.031737 
2978.091904  	0.031626 
2980.020720  	0.031446 
2981.949536  	0.031274 
2983.878352  	0.031325 
2985.807168  	0.031508 
2987.735984  	0.031844 
2989.664800  	0.031851 
2991.593616  	0.030886 
2993.522432  	0.030268 
2995.451248  	0.030145 
2997.380064  	0.030194 
2999.308880  	0.030082 
3001.237696  	0.029706 
3003.166512  	0.029323 
3005.095328  	0.029049 
3007.024144  	0.028762 
3008.952960  	0.028427 
3010.881776  	0.028158 
3012.810592  	0.027939 
3014.739408  	0.027750 
3016.668224  	0.027711 
3018.597040  	0.027446 
3020.525856  	0.027021 
3022.454672  	0.026895 
3024.383488  	0.026971 
3026.312304  	0.026939 
3028.241120  	0.026797 
3030.169936  	0.026530 
3032.098752  	0.026575 
3034.027568  	0.026462 
3035.956384  	0.026291 
3037.885200  	0.026383 
3039.814016  	0.026494 
3041.742832  	0.026628 
3043.671648  	0.026693 
3045.600464  	0.026663 
3047.529280  	0.026756 
3049.458096  	0.026894 
3051.386912  	0.026799 
3053.315728  	0.026922 
3055.244544  	0.027285 
3057.173360  	0.027682 
3059.102176  	0.027802 
3061.030992  	0.027862 
3062.959808  	0.028052 
3064.888624  	0.028322 
3066.817440  	0.028566 
3068.746256  	0.028692 
3070.675072  	0.028737 
3072.603888  	0.028959 
3074.532704  	0.029451 
3076.461520  	0.029728 
3078.390336  	0.029737 
3080.319152  	0.029932 
3082.247968  	0.030270 
3084.176784  	0.030514 
3086.105600  	0.030685 
3088.034416  	0.030993 
3089.963232  	0.031379 
3091.892048  	0.031534 
3093.820864  	0.031634 
3095.749680  	0.031885 
3097.678496  	0.031964 
3099.607312  	0.032202 
3101.536128  	0.032488 
3103.464944  	0.032742 
3105.393760  	0.032966 
3107.322576  	0.033160 
3109.251392  	0.033381 
3111.180208  	0.033680 
3113.109024  	0.033870 
3115.037840  	0.034102 
3116.966656  	0.034290 
3118.895472  	0.034431 
3120.824288  	0.034475 
3122.753104  	0.034691 
3124.681920  	0.034921 
3126.610736  	0.035188 
3128.539552  	0.035349 
3130.468368  	0.035300 
3132.397184  	0.035343 
3134.326000  	0.035445 
3136.254816  	0.035622 
3138.183632  	0.035864 
3140.112448  	0.035922 
3142.041264  	0.035971 
3143.970080  	0.036155 
3145.898896  	0.036317 
3147.827712  	0.036540 
3149.756528  	0.036809 
3151.685344  	0.037104 
3153.614160  	0.037421 
3155.542976  	0.037572 
3157.471792  	0.037568 
3159.400608  	0.037889 
3161.329424  	0.038285 
3163.258240  	0.038595 
3165.187056  	0.038671 
3167.115872  	0.038693 
3169.044688  	0.038910 
3170.973504  	0.038903 
3172.902320  	0.038854 
3174.831136  	0.039112 
3176.759952  	0.039426 
3178.688768  	0.039695 
3180.617584  	0.039748 
3182.546400  	0.039509 
3184.475216  	0.039621 
3186.404032  	0.039733 
3188.332848  	0.039754 
3190.261664  	0.039976 
3192.190480  	0.040016 
3194.119296  	0.039841 
3196.048112  	0.039836 
3197.976928  	0.040234 
3199.905744  	0.040373 
3201.834560  	0.040223 
3203.763376  	0.040204 
3205.692192  	0.040219 
3207.621008  	0.040105 
3209.549824  	0.040052 
3211.478640  	0.040011 
3213.407456  	0.039887 
3215.336272  	0.039901 
3217.265088  	0.039848 
3219.193904  	0.039694 
3221.122720  	0.039386 
3223.051536  	0.039341 
3224.980352  	0.039368 
3226.909168  	0.039213 
3228.837984  	0.039063 
3230.766800  	0.039053 
3232.695616  	0.039159 
3234.624432  	0.039088 
3236.553248  	0.039062 
3238.482064  	0.039000 
3240.410880  	0.038977 
3242.339696  	0.038983 
3244.268512  	0.038877 
3246.197328  	0.038830 
3248.126144  	0.038766 
3250.054960  	0.038833 
3251.983776  	0.038900 
3253.912592  	0.038877 
3255.841408  	0.038878 
3257.770224  	0.039015 
3259.699040  	0.039218 
3261.627856  	0.039310 
3263.556672  	0.039325 
3265.485488  	0.039239 
3267.414304  	0.039361 
3269.343120  	0.039548 
3271.271936  	0.039636 
3273.200752  	0.039691 
3275.129568  	0.039751 
3277.058384  	0.039874 
3278.987200  	0.040061 
3280.916016  	0.040020 
3282.844832  	0.040001 
3284.773648  	0.040090 
3286.702464  	0.040211 
3288.631280  	0.040399 
3290.560096  	0.040517 
3292.488912  	0.040704 
3294.417728  	0.040685 
3296.346544  	0.040526 
3298.275360  	0.040602 
3300.204176  	0.041056 
3302.132992  	0.041353 
3304.061808  	0.041393 
3305.990624  	0.041522 
3307.919440  	0.041625 
3309.848256  	0.041692 
3311.777072  	0.041739 
3313.705888  	0.041868 
3315.634704  	0.042170 
3317.563520  	0.042320 
3319.492336  	0.042426 
3321.421152  	0.042533 
3323.349968  	0.042703 
3325.278784  	0.042950 
3327.207600  	0.042951 
3329.136416  	0.042956 
3331.065232  	0.042939 
3332.994048  	0.043075 
3334.922864  	0.043115 
3336.851680  	0.043020 
3338.780496  	0.043005 
3340.709312  	0.043120 
3342.638128  	0.043172 
3344.566944  	0.043030 
3346.495760  	0.042901 
3348.424576  	0.042784 
3350.353392  	0.042718 
3352.282208  	0.042578 
3354.211024  	0.042502 
3356.139840  	0.042461 
3358.068656  	0.042268 
3359.997472  	0.041937 
3361.926288  	0.041819 
3363.855104  	0.041807 
3365.783920  	0.041725 
3367.712736  	0.041637 
3369.641552  	0.041334 
3371.570368  	0.041119 
3373.499184  	0.040905 
3375.428000  	0.040668 
3377.356816  	0.040638 
3379.285632  	0.040660 
3381.214448  	0.040464 
3383.143264  	0.040207 
3385.072080  	0.040291 
3387.000896  	0.040029 
3388.929712  	0.039757 
3390.858528  	0.039599 
3392.787344  	0.039499 
3394.716160  	0.039178 
3396.644976  	0.039000 
3398.573792  	0.038869 
3400.502608  	0.038448 
3402.431424  	0.038294 
3404.360240  	0.038213 
3406.289056  	0.037949 
3408.217872  	0.037799 
3410.146688  	0.037572 
3412.075504  	0.037603 
3414.004320  	0.037674 
3415.933136  	0.037349 
3417.861952  	0.036920 
3419.790768  	0.036814 
3421.719584  	0.036662 
3423.648400  	0.036264 
3425.577216  	0.036090 
3427.506032  	0.035903 
3429.434848  	0.035575 
3431.363664  	0.035647 
3433.292480  	0.035537 
3435.221296  	0.035189 
3437.150112  	0.035079 
3439.078928  	0.034948 
3441.007744  	0.034720 
3442.936560  	0.034641 
3444.865376  	0.034117 
3446.794192  	0.033778 
3448.723008  	0.033907 
3450.651824  	0.033458 
3452.580640  	0.033064 
3454.509456  	0.032849 
3456.438272  	0.032595 
3458.367088  	0.032441 
3460.295904  	0.032202 
3462.224720  	0.031990 
3464.153536  	0.031846 
3466.082352  	0.031701 
3468.011168  	0.031348 
3469.939984  	0.030818 
3471.868800  	0.030375 
3473.797616  	0.030245 
3475.726432  	0.030093 
3477.655248  	0.029629 
3479.584064  	0.029254 
3481.512880  	0.029213 
3483.441696  	0.028987 
3485.370512  	0.028239 
3487.299328  	0.028049 
3489.228144  	0.028190 
3491.156960  	0.027730 
3493.085776  	0.027234 
3495.014592  	0.027011 
3496.943408  	0.026842 
3498.872224  	0.026219 
3500.801040  	0.025696 
3502.729856  	0.025833 
3504.658672  	0.025741 
3506.587488  	0.024960 
3508.516304  	0.024693 
3510.445120  	0.025057 
3512.373936  	0.024904 
3514.302752  	0.024533 
3516.231568  	0.024232 
3518.160384  	0.023974 
3520.089200  	0.023606 
3522.018016  	0.023374 
3523.946832  	0.023325 
3525.875648  	0.023017 
3527.804464  	0.022934 
3529.733280  	0.022983 
3531.662096  	0.022724 
3533.590912  	0.022148 
3535.519728  	0.021883 
3537.448544  	0.022023 
3539.377360  	0.021685 
3541.306176  	0.020960 
3543.234992  	0.020377 
3545.163808  	0.020730 
3547.092624  	0.021233 
3549.021440  	0.020557 
3550.950256  	0.019988 
3552.879072  	0.020328 
3554.807888  	0.020064 
3556.736704  	0.019426 
3558.665520  	0.019078 
3560.594336  	0.019146 
3562.523152  	0.018866 
3564.451968  	0.017972 
3566.380784  	0.018079 
3568.309600  	0.019432 
3570.238416  	0.018811 
3572.167232  	0.017628 
3574.096048  	0.017380 
3576.024864  	0.017452 
3577.953680  	0.017127 
3579.882496  	0.016890 
3581.811312  	0.016677 
3583.740128  	0.015917 
3585.668944  	0.015238 
3587.597760  	0.016597 
3589.526576  	0.016922 
3591.455392  	0.015510 
3593.384208  	0.015299 
3595.313024  	0.015581 
3597.241840  	0.015320 
3599.170656  	0.014836 
3601.099472  	0.014675 
3603.028288  	0.014065 
3604.957104  	0.013053 
3606.885920  	0.012582 
3608.814736  	0.013439 
3610.743552  	0.012616 
3612.672368  	0.011965 
3614.601184  	0.012412 
3616.530000  	0.011322 
3618.458816  	0.011542 
3620.387632  	0.012798 
3622.316448  	0.011945 
3624.245264  	0.010699 
3626.174080  	0.009151 
3628.102896  	0.009640 
3630.031712  	0.012831 
3631.960528  	0.011338 
3633.889344  	0.010508 
3635.818160  	0.009807 
3637.746976  	0.009322 
3639.675792  	0.009340 
3641.604608  	0.009174 
3643.533424  	0.008474 
3645.462240  	0.006974 
3647.391056  	0.006963 
3649.319872  	0.008750 
3651.248688  	0.010604 
3653.177504  	0.008774 
3655.106320  	0.007527 
3657.035136  	0.008970 
3658.963952  	0.008645 
3660.892768  	0.007795 
3662.821584  	0.007348 
3664.750400  	0.006892 
3666.679216  	0.005916 
3668.608032  	0.005456 
3670.536848  	0.007454 
3672.465664  	0.006584 
3674.394480  	0.005576 
3676.323296  	0.009577 
3678.252112  	0.008514 
3680.180928  	0.007519 
3682.109744  	0.006906 
3684.038560  	0.006344 
3685.967376  	0.005167 
3687.896192  	0.005317 
3689.825008  	0.007077 
3691.753824  	0.007560 
3693.682640  	0.006895 
3695.611456  	0.006064 
3697.540272  	0.005680 
3699.469088  	0.004939 
3701.397904  	0.005779 
3703.326720  	0.006396 
3705.255536  	0.005329 
3707.184352  	0.004479 
3709.113168  	0.004377 
3711.041984  	0.005330 
3712.970800  	0.006251 
3714.899616  	0.005191 
3716.828432  	0.004300 
3718.757248  	0.004044 
3720.686064  	0.004164 
3722.614880  	0.005176 
3724.543696  	0.005400 
3726.472512  	0.005814 
3728.401328  	0.005329 
3730.330144  	0.003429 
3732.258960  	0.003183 
3734.187776  	0.004055 
3736.116592  	0.006558 
3738.045408  	0.005988 
3739.974224  	0.004041 
3741.903040  	0.002422 
3743.831856  	0.003816 
3745.760672  	0.006279 
3747.689488  	0.002980 
3749.618304  	0.003032 
3751.547120  	0.005490 
3753.475936  	0.006290 
3755.404752  	0.004367 
3757.333568  	0.003645 
3759.262384  	0.004340 
3761.191200  	0.005153 
3763.120016  	0.004017 
3765.048832  	0.004022 
3766.977648  	0.004009 
3768.906464  	0.003920 
3770.835280  	0.005363 
3772.764096  	0.005033 
3774.692912  	0.004203 
3776.621728  	0.003473 
3778.550544  	0.003740 
3780.479360  	0.004916 
3782.408176  	0.004181 
3784.336992  	0.004114 
3786.265808  	0.004496 
3788.194624  	0.004429 
3790.123440  	0.004237 
3792.052256  	0.004073 
3793.981072  	0.003462 
3795.909888  	0.003849 
3797.838704  	0.004012 
3799.767520  	0.002736 
3801.696336  	0.005021 
3803.625152  	0.005092 
3805.553968  	0.003430 
3807.482784  	0.005358 
3809.411600  	0.005166 
3811.340416  	0.004151 
3813.269232  	0.003037 
3815.198048  	0.003328 
3817.126864  	0.004893 
3819.055680  	0.003102 
3820.984496  	0.004811 
3822.913312  	0.006054 
3824.842128  	0.004227 
3826.770944  	0.004444 
3828.699760  	0.004066 
3830.628576  	0.003405 
3832.557392  	0.003812 
3834.486208  	0.003247 
3836.415024  	0.003189 
3838.343840  	0.004820 
3840.272656  	0.005293 
3842.201472  	0.004843 
3844.130288  	0.004973 
3846.059104  	0.004573 
3847.987920  	0.003489 
3849.916736  	0.002321 
3851.845552  	0.001856 
3853.774368  	0.006528 
3855.703184  	0.006889 
3857.632000  	0.004754 
3859.560816  	0.003508 
3861.489632  	0.003324 
3863.418448  	0.003839 
3865.347264  	0.004712 
3867.276080  	0.003343 
3869.204896  	0.003578 
3871.133712  	0.005592 
3873.062528  	0.004418 
3874.991344  	0.004962 
3876.920160  	0.003889 
3878.848976  	0.003129 
3880.777792  	0.004552 
3882.706608  	0.004194 
3884.635424  	0.003750 
3886.564240  	0.005423 
3888.493056  	0.004155 
3890.421872  	0.003915 
3892.350688  	0.005048 
3894.279504  	0.004367 
3896.208320  	0.003463 
3898.137136  	0.003331 
3900.065952  	0.003991 
3901.994768  	0.004254 
3903.923584  	0.005169 
3905.852400  	0.005759 
3907.781216  	0.004816 
3909.710032  	0.004117 
3911.638848  	0.004087 
3913.567664  	0.003891 
3915.496480  	0.003729 
3917.425296  	0.004546 
3919.354112  	0.004623 
3921.282928  	0.004289 
3923.211744  	0.004024 
3925.140560  	0.004522 
3927.069376  	0.004234 
3928.998192  	0.003814 
3930.927008  	0.004151 
3932.855824  	0.004757 
3934.784640  	0.004628 
3936.713456  	0.004399 
3938.642272  	0.004275 
3940.571088  	0.003872 
3942.499904  	0.004266 
3944.428720  	0.004559 
3946.357536  	0.004073 
3948.286352  	0.004186 
3950.215168  	0.004435 
3952.143984  	0.004327 
3954.072800  	0.004127 
3956.001616  	0.004047 
3957.930432  	0.004189 
3959.859248  	0.004337 
3961.788064  	0.004372 
3963.716880  	0.004446 
3965.645696  	0.004228 
3967.574512  	0.004175 
3969.503328  	0.004238 
3971.432144  	0.004115 
3973.360960  	0.004122 
3975.289776  	0.004428 
3977.218592  	0.004521 
3979.147408  	0.004565 
3981.076224  	0.004424 
3983.005040  	0.004258 
3984.933856  	0.004170 
3986.862672  	0.004272 
3988.791488  	0.004217 
3990.720304  	0.004197 
3992.649120  	0.004355 
3994.577936  	0.004302 
3996.506752  	0.004094 
3998.435568  	0.004121 
4000.364384  	0.004142 