##TITLE=No Description
##DATA TYPE=INFRARED SPECTRUM
##XUNITS=1/CM
##YUNITS=Abs
399.264912  	0.574027 
401.193728  	0.551904 
403.122544  	0.555084 
405.051360  	0.572560 
406.980176  	0.563447 
408.908992  	0.543239 
410.837808  	0.545121 
412.766624  	0.541887 
414.695440  	0.544210 
416.624256  	0.530971 
418.553072  	0.511240 
420.481888  	0.512150 
422.410704  	0.526797 
424.339520  	0.524903 
426.268336  	0.527289 
428.197152  	0.521530 
430.125968  	0.524067 
432.054784  	0.518517 
433.983600  	0.513565 
435.912416  	0.500832 
437.841232  	0.495750 
439.770048  	0.496591 
441.698864  	0.499638 
443.627680  	0.492394 
445.556496  	0.490479 
447.485312  	0.487724 
449.414128  	0.492065 
451.342944  	0.497036 
453.271760  	0.498790 
455.200576  	0.489328 
457.129392  	0.482544 
459.058208  	0.478501 
460.987024  	0.484952 
462.915840  	0.490475 
464.844656  	0.496622 
466.773472  	0.492097 
468.702288  	0.480153 
470.631104  	0.466706 
472.559920  	0.468723 
474.488736  	0.470628 
476.417552  	0.468079 
478.346368  	0.469518 
480.275184  	0.472925 
482.204000  	0.472108 
484.132816  	0.474955 
486.061632  	0.470995 
487.990448  	0.468873 
489.919264  	0.465180 
491.848080  	0.461309 
493.776896  	0.458527 
495.705712  	0.463676 
497.634528  	0.463381 
499.563344  	0.463964 
501.492160  	0.462075 
503.420976  	0.460258 
505.349792  	0.454217 
507.278608  	0.455653 
509.207424  	0.457106 
511.136240  	0.456287 
513.065056  	0.454025 
514.993872  	0.456103 
516.922688  	0.455630 
518.851504  	0.456315 
520.780320  	0.453312 
522.709136  	0.454369 
524.637952  	0.452888 
526.566768  	0.450758 
528.495584  	0.448683 
530.424400  	0.449003 
532.353216  	0.446550 
534.282032  	0.441763 
536.210848  	0.436849 
538.139664  	0.434522 
540.068480  	0.432441 
541.997296  	0.431232 
543.926112  	0.427884 
545.854928  	0.425185 
547.783744  	0.421322 
549.712560  	0.418567 
551.641376  	0.415889 
553.570192  	0.415559 
555.499008  	0.412727 
557.427824  	0.410212 
559.356640  	0.405931 
561.285456  	0.403362 
563.214272  	0.400827 
565.143088  	0.399338 
567.071904  	0.396707 
569.000720  	0.394560 
570.929536  	0.391188 
572.858352  	0.387735 
574.787168  	0.384340 
576.715984  	0.382822 
578.644800  	0.379564 
580.573616  	0.376284 
582.502432  	0.373067 
584.431248  	0.371722 
586.360064  	0.370405 
588.288880  	0.368995 
590.217696  	0.366654 
592.146512  	0.364951 
594.075328  	0.361974 
596.004144  	0.359995 
597.932960  	0.357922 
599.861776  	0.356526 
601.790592  	0.354822 
603.719408  	0.353521 
605.648224  	0.351558 
607.577040  	0.350426 
609.505856  	0.349327 
611.434672  	0.348188 
613.363488  	0.345319 
615.292304  	0.343481 
617.221120  	0.342292 
619.149936  	0.341406 
621.078752  	0.339021 
623.007568  	0.336822 
624.936384  	0.334870 
626.865200  	0.333910 
628.794016  	0.332459 
630.722832  	0.331453 
632.651648  	0.329845 
634.580464  	0.328166 
636.509280  	0.327835 
638.438096  	0.327403 
640.366912  	0.326426 
642.295728  	0.325282 
644.224544  	0.322603 
646.153360  	0.320022 
648.082176  	0.317796 
650.010992  	0.315571 
651.939808  	0.311786 
653.868624  	0.309549 
655.797440  	0.306726 
657.726256  	0.304193 
659.655072  	0.301090 
661.583888  	0.298062 
663.512704  	0.294425 
665.441520  	0.291789 
667.370336  	0.290660 
669.299152  	0.288417 
671.227968  	0.284587 
673.156784  	0.281818 
675.085600  	0.279542 
677.014416  	0.278040 
678.943232  	0.277053 
680.872048  	0.275354 
682.800864  	0.272914 
684.729680  	0.271223 
686.658496  	0.269221 
688.587312  	0.267044 
690.516128  	0.264347 
692.444944  	0.262462 
694.373760  	0.260539 
696.302576  	0.259296 
698.231392  	0.257369 
700.160208  	0.254772 
702.089024  	0.251775 
704.017840  	0.250374 
705.946656  	0.248557 
707.875472  	0.246433 
709.804288  	0.243971 
711.733104  	0.242043 
713.661920  	0.240209 
715.590736  	0.239030 
717.519552  	0.237652 
719.448368  	0.236989 
721.377184  	0.236692 
723.306000  	0.235925 
725.234816  	0.234871 
727.163632  	0.233621 
729.092448  	0.231484 
731.021264  	0.229567 
732.950080  	0.227069 
734.878896  	0.224761 
736.807712  	0.222624 
738.736528  	0.220897 
740.665344  	0.219385 
742.594160  	0.218111 
744.522976  	0.216374 
746.451792  	0.214663 
748.380608  	0.213195 
750.309424  	0.212323 
752.238240  	0.211291 
754.167056  	0.210209 
756.095872  	0.208590 
758.024688  	0.206979 
759.953504  	0.205981 
761.882320  	0.205200 
763.811136  	0.204436 
765.739952  	0.203435 
767.668768  	0.201872 
769.597584  	0.200160 
771.526400  	0.199081 
773.455216  	0.199031 
775.384032  	0.199175 
777.312848  	0.200099 
779.241664  	0.201129 
781.170480  	0.200665 
783.099296  	0.198336 
785.028112  	0.195317 
786.956928  	0.191383 
788.885744  	0.187966 
790.814560  	0.184980 
792.743376  	0.182814 
794.672192  	0.181155 
796.601008  	0.180161 
798.529824  	0.178105 
800.458640  	0.175373 
802.387456  	0.172604 
804.316272  	0.170910 
806.245088  	0.169590 
808.173904  	0.168684 
810.102720  	0.167924 
812.031536  	0.166958 
813.960352  	0.165787 
815.889168  	0.164984 
817.817984  	0.164205 
819.746800  	0.163361 
821.675616  	0.162197 
823.604432  	0.161328 
825.533248  	0.160043 
827.462064  	0.158539 
829.390880  	0.157306 
831.319696  	0.156282 
833.248512  	0.154749 
835.177328  	0.152940 
837.106144  	0.150747 
839.034960  	0.148652 
840.963776  	0.146495 
842.892592  	0.144497 
844.821408  	0.142528 
846.750224  	0.140748 
848.679040  	0.139257 
850.607856  	0.137785 
852.536672  	0.136545 
854.465488  	0.135140 
856.394304  	0.133960 
858.323120  	0.133096 
860.251936  	0.131863 
862.180752  	0.130395 
864.109568  	0.129143 
866.038384  	0.128261 
867.967200  	0.127211 
869.896016  	0.125998 
871.824832  	0.124431 
873.753648  	0.123525 
875.682464  	0.123082 
877.611280  	0.123103 
879.540096  	0.123320 
881.468912  	0.123234 
883.397728  	0.122853 
885.326544  	0.122495 
887.255360  	0.121915 
889.184176  	0.121206 
891.112992  	0.120519 
893.041808  	0.119060 
894.970624  	0.117318 
896.899440  	0.115680 
898.828256  	0.113431 
900.757072  	0.110960 
902.685888  	0.108798 
904.614704  	0.107497 
906.543520  	0.106695 
908.472336  	0.106572 
910.401152  	0.106863 
912.329968  	0.107600 
914.258784  	0.108435 
916.187600  	0.109402 
918.116416  	0.109853 
920.045232  	0.109652 
921.974048  	0.108773 
923.902864  	0.107727 
925.831680  	0.106647 
927.760496  	0.105436 
929.689312  	0.104300 
931.618128  	0.103758 
933.546944  	0.103275 
935.475760  	0.102435 
937.404576  	0.101810 
939.333392  	0.101540 
941.262208  	0.101586 
943.191024  	0.102098 
945.119840  	0.103230 
947.048656  	0.104890 
948.977472  	0.107180 
950.906288  	0.110126 
952.835104  	0.113329 
954.763920  	0.116410 
956.692736  	0.119265 
958.621552  	0.121851 
960.550368  	0.123464 
962.479184  	0.123940 
964.408000  	0.122810 
966.336816  	0.120413 
968.265632  	0.116558 
970.194448  	0.111892 
972.123264  	0.106507 
974.052080  	0.101015 
975.980896  	0.095627 
977.909712  	0.090410 
979.838528  	0.086089 
981.767344  	0.082391 
983.696160  	0.079378 
985.624976  	0.077645 
987.553792  	0.077403 
989.482608  	0.077873 
991.411424  	0.079217 
993.340240  	0.081547 
995.269056  	0.084717 
997.197872  	0.088087 
999.126688  	0.091252 
1001.055504  	0.094677 
1002.984320  	0.098101 
1004.913136  	0.101632 
1006.841952  	0.104603 
1008.770768  	0.107413 
1010.699584  	0.109807 
1012.628400  	0.111523 
1014.557216  	0.112517 
1016.486032  	0.113053 
1018.414848  	0.113564 
1020.343664  	0.113998 
1022.272480  	0.114284 
1024.201296  	0.114640 
1026.130112  	0.115431 
1028.058928  	0.116186 
1029.987744  	0.115947 
1031.916560  	0.116912 
1033.845376  	0.118758 
1035.774192  	0.121043 
1037.703008  	0.123431 
1039.631824  	0.126441 
1041.560640  	0.130220 
1043.489456  	0.135082 
1045.418272  	0.140931 
1047.347088  	0.147776 
1049.275904  	0.154917 
1051.204720  	0.162051 
1053.133536  	0.168452 
1055.062352  	0.173898 
1056.991168  	0.178017 
1058.919984  	0.180395 
1060.848800  	0.180798 
1062.777616  	0.181680 
1064.706432  	0.182793 
1066.635248  	0.182873 
1068.564064  	0.179885 
1070.492880  	0.177189 
1072.421696  	0.175091 
1074.350512  	0.173072 
1076.279328  	0.171056 
1078.208144  	0.169621 
1080.136960  	0.168375 
1082.065776  	0.167078 
1083.994592  	0.165528 
1085.923408  	0.164108 
1087.852224  	0.162065 
1089.781040  	0.159915 
1091.709856  	0.156455 
1093.638672  	0.152574 
1095.567488  	0.148170 
1097.496304  	0.143612 
1099.425120  	0.138410 
1101.353936  	0.132939 
1103.282752  	0.126990 
1105.211568  	0.120836 
1107.140384  	0.114557 
1109.069200  	0.108370 
1110.998016  	0.102776 
1112.926832  	0.097385 
1114.855648  	0.091967 
1116.784464  	0.086492 
1118.713280  	0.081619 
1120.642096  	0.077296 
1122.570912  	0.073133 
1124.499728  	0.069563 
1126.428544  	0.066245 
1128.357360  	0.063016 
1130.286176  	0.059796 
1132.214992  	0.057365 
1134.143808  	0.055267 
1136.072624  	0.053199 
1138.001440  	0.051193 
1139.930256  	0.049265 
1141.859072  	0.047489 
1143.787888  	0.045850 
1145.716704  	0.044501 
1147.645520  	0.043485 
1149.574336  	0.042450 
1151.503152  	0.041682 
1153.431968  	0.041351 
1155.360784  	0.041142 
1157.289600  	0.041076 
1159.218416  	0.041376 
1161.147232  	0.041919 
1163.076048  	0.042468 
1165.004864  	0.043161 
1166.933680  	0.043972 
1168.862496  	0.044973 
1170.791312  	0.046025 
1172.720128  	0.046873 
1174.648944  	0.047865 
1176.577760  	0.049072 
1178.506576  	0.050239 
1180.435392  	0.051282 
1182.364208  	0.052273 
1184.293024  	0.053382 
1186.221840  	0.054622 
1188.150656  	0.055999 
1190.079472  	0.057678 
1192.008288  	0.059766 
1193.937104  	0.062240 
1195.865920  	0.065009 
1197.794736  	0.067773 
1199.723552  	0.071084 
1201.652368  	0.074892 
1203.581184  	0.078732 
1205.510000  	0.082317 
1207.438816  	0.085991 
1209.367632  	0.089602 
1211.296448  	0.093057 
1213.225264  	0.096626 
1215.154080  	0.099786 
1217.082896  	0.102416 
1219.011712  	0.104518 
1220.940528  	0.106799 
1222.869344  	0.108670 
1224.798160  	0.110186 
1226.726976  	0.111348 
1228.655792  	0.112420 
1230.584608  	0.112945 
1232.513424  	0.113103 
1234.442240  	0.112469 
1236.371056  	0.111371 
1238.299872  	0.109883 
1240.228688  	0.108303 
1242.157504  	0.105865 
1244.086320  	0.102490 
1246.015136  	0.099073 
1247.943952  	0.095752 
1249.872768  	0.092100 
1251.801584  	0.088134 
1253.730400  	0.084172 
1255.659216  	0.080346 
1257.588032  	0.076583 
1259.516848  	0.072922 
1261.445664  	0.069471 
1263.374480  	0.066238 
1265.303296  	0.063074 
1267.232112  	0.060398 
1269.160928  	0.058292 
1271.089744  	0.056763 
1273.018560  	0.055766 
1274.947376  	0.055183 
1276.876192  	0.054702 
1278.805008  	0.054019 
1280.733824  	0.052921 
1282.662640  	0.051243 
1284.591456  	0.049190 
1286.520272  	0.047173 
1288.449088  	0.045492 
1290.377904  	0.044238 
1292.306720  	0.043239 
1294.235536  	0.042023 
1296.164352  	0.040213 
1298.093168  	0.038200 
1300.021984  	0.036293 
1301.950800  	0.034417 
1303.879616  	0.032766 
1305.808432  	0.031470 
1307.737248  	0.030314 
1309.666064  	0.029166 
1311.594880  	0.028431 
1313.523696  	0.027929 
1315.452512  	0.027543 
1317.381328  	0.027541 
1319.310144  	0.027755 
1321.238960  	0.028102 
1323.167776  	0.028683 
1325.096592  	0.029071 
1327.025408  	0.029139 
1328.954224  	0.028920 
1330.883040  	0.028559 
1332.811856  	0.028012 
1334.740672  	0.027480 
1336.669488  	0.026913 
1338.598304  	0.026600 
1340.527120  	0.026551 
1342.455936  	0.026268 
1344.384752  	0.026111 
1346.313568  	0.026378 
1348.242384  	0.026942 
1350.171200  	0.027763 
1352.100016  	0.028704 
1354.028832  	0.029661 
1355.957648  	0.030887 
1357.886464  	0.032004 
1359.815280  	0.032765 
1361.744096  	0.033775 
1363.672912  	0.035367 
1365.601728  	0.036207 
1367.530544  	0.036674 
1369.459360  	0.037255 
1371.388176  	0.037153 
1373.316992  	0.036916 
1375.245808  	0.036918 
1377.174624  	0.036164 
1379.103440  	0.035238 
1381.032256  	0.034334 
1382.961072  	0.033484 
1384.889888  	0.032505 
1386.818704  	0.031739 
1388.747520  	0.031050 
1390.676336  	0.030288 
1392.605152  	0.030211 
1394.533968  	0.030397 
1396.462784  	0.029620 
1398.391600  	0.029329 
1400.320416  	0.030339 
1402.249232  	0.030646 
1404.178048  	0.031373 
1406.106864  	0.032445 
1408.035680  	0.033155 
1409.964496  	0.033702 
1411.893312  	0.034409 
1413.822128  	0.034866 
1415.750944  	0.034830 
1417.679760  	0.034648 
1419.608576  	0.035416 
1421.537392  	0.034895 
1423.466208  	0.033937 
1425.395024  	0.033387 
1427.323840  	0.032181 
1429.252656  	0.031141 
1431.181472  	0.030508 
1433.110288  	0.029957 
1435.039104  	0.029554 
1436.967920  	0.030764 
1438.896736  	0.031127 
1440.825552  	0.030988 
1442.754368  	0.031352 
1444.683184  	0.031267 
1446.612000  	0.031240 
1448.540816  	0.031881 
1450.469632  	0.031989 
1452.398448  	0.031821 
1454.327264  	0.031193 
1456.256080  	0.031062 
1458.184896  	0.032764 
1460.113712  	0.032566 
1462.042528  	0.031899 
1463.971344  	0.031918 
1465.900160  	0.033427 
1467.828976  	0.034127 
1469.757792  	0.034580 
1471.686608  	0.036192 
1473.615424  	0.039923 
1475.544240  	0.041676 
1477.473056  	0.043261 
1479.401872  	0.043688 
1481.330688  	0.044190 
1483.259504  	0.044419 
1485.188320  	0.043851 
1487.117136  	0.043090 
1489.045952  	0.042428 
1490.974768  	0.041633 
1492.903584  	0.039649 
1494.832400  	0.037234 
1496.761216  	0.035727 
1498.690032  	0.033981 
1500.618848  	0.032183 
1502.547664  	0.030061 
1504.476480  	0.027725 
1506.405296  	0.027075 
1508.334112  	0.027817 
1510.262928  	0.026568 
1512.191744  	0.025783 
1514.120560  	0.024663 
1516.049376  	0.024331 
1517.978192  	0.025086 
1519.907008  	0.025101 
1521.835824  	0.027441 
1523.764640  	0.028586 
1525.693456  	0.029418 
1527.622272  	0.030685 
1529.551088  	0.031057 
1531.479904  	0.030538 
1533.408720  	0.030714 
1535.337536  	0.030291 
1537.266352  	0.027948 
1539.195168  	0.026747 
1541.123984  	0.027011 
1543.052800  	0.026000 
1544.981616  	0.025197 
1546.910432  	0.024397 
1548.839248  	0.023435 
1550.768064  	0.023711 
1552.696880  	0.023468 
1554.625696  	0.023882 
1556.554512  	0.023203 
1558.483328  	0.024812 
1560.412144  	0.029127 
1562.340960  	0.028609 
1564.269776  	0.029108 
1566.198592  	0.030986 
1568.127408  	0.032183 
1570.056224  	0.035849 
1571.985040  	0.037963 
1573.913856  	0.038246 
1575.842672  	0.039687 
1577.771488  	0.041784 
1579.700304  	0.041113 
1581.629120  	0.040761 
1583.557936  	0.040674 
1585.486752  	0.041435 
1587.415568  	0.042616 
1589.344384  	0.044635 
1591.273200  	0.046958 
1593.202016  	0.049821 
1595.130832  	0.052654 
1597.059648  	0.055605 
1598.988464  	0.057800 
1600.917280  	0.059682 
1602.846096  	0.060869 
1604.774912  	0.061672 
1606.703728  	0.061518 
1608.632544  	0.061396 
1610.561360  	0.060876 
1612.490176  	0.060308 
1614.418992  	0.059241 
1616.347808  	0.060511 
1618.276624  	0.062682 
1620.205440  	0.063308 
1622.134256  	0.064876 
1624.063072  	0.069193 
1625.991888  	0.071824 
1627.920704  	0.075491 
1629.849520  	0.079768 
1631.778336  	0.082859 
1633.707152  	0.085125 
1635.635968  	0.091220 
1637.564784  	0.096981 
1639.493600  	0.098759 
1641.422416  	0.100828 
1643.351232  	0.102139 
1645.280048  	0.103017 
1647.208864  	0.106563 
1649.137680  	0.107039 
1651.066496  	0.104297 
1652.995312  	0.105652 
1654.924128  	0.108987 
1656.852944  	0.106504 
1658.781760  	0.105080 
1660.710576  	0.103832 
1662.639392  	0.103605 
1664.568208  	0.103025 
1666.497024  	0.100897 
1668.425840  	0.099616 
1670.354656  	0.100226 
1672.283472  	0.099261 
1674.212288  	0.097962 
1676.141104  	0.099105 
1678.069920  	0.098700 
1679.998736  	0.098347 
1681.927552  	0.097523 
1683.856368  	0.098836 
1685.785184  	0.101988 
1687.714000  	0.100199 
1689.642816  	0.099655 
1691.571632  	0.099013 
1693.500448  	0.096977 
1695.429264  	0.095773 
1697.358080  	0.094892 
1699.286896  	0.092150 
1701.215712  	0.092459 
1703.144528  	0.089215 
1705.073344  	0.086195 
1707.002160  	0.083846 
1708.930976  	0.080865 
1710.859792  	0.077404 
1712.788608  	0.073440 
1714.717424  	0.069430 
1716.646240  	0.065589 
1718.575056  	0.062317 
1720.503872  	0.057525 
1722.432688  	0.052913 
1724.361504  	0.048679 
1726.290320  	0.044582 
1728.219136  	0.040456 
1730.147952  	0.036954 
1732.076768  	0.033558 
1734.005584  	0.031432 
1735.934400  	0.028788 
1737.863216  	0.025638 
1739.792032  	0.023377 
1741.720848  	0.021436 
1743.649664  	0.019440 
1745.578480  	0.017711 
1747.507296  	0.016137 
1749.436112  	0.015357 
1751.364928  	0.015168 
1753.293744  	0.014505 
1755.222560  	0.013098 
1757.151376  	0.012870 
1759.080192  	0.012048 
1761.009008  	0.011569 
1762.937824  	0.011694 
1764.866640  	0.011146 
1766.795456  	0.010380 
1768.724272  	0.010298 
1770.653088  	0.009617 
1772.581904  	0.010415 
1774.510720  	0.010393 
1776.439536  	0.009889 
1778.368352  	0.009442 
1780.297168  	0.009628 
1782.225984  	0.009679 
1784.154800  	0.009370 
1786.083616  	0.009371 
1788.012432  	0.008943 
1789.941248  	0.008118 
1791.870064  	0.008458 
1793.798880  	0.009048 
1795.727696  	0.008875 
1797.656512  	0.008499 
1799.585328  	0.008300 
1801.514144  	0.008391 
1803.442960  	0.008355 
1805.371776  	0.008070 
1807.300592  	0.007747 
1809.229408  	0.007430 
1811.158224  	0.007717 
1813.087040  	0.007721 
1815.015856  	0.007342 
1816.944672  	0.007267 
1818.873488  	0.007701 
1820.802304  	0.007762 
1822.731120  	0.007384 
1824.659936  	0.007243 
1826.588752  	0.007489 
1828.517568  	0.007097 
1830.446384  	0.007796 
1832.375200  	0.007798 
1834.304016  	0.007401 
1836.232832  	0.007327 
1838.161648  	0.007584 
1840.090464  	0.007324 
1842.019280  	0.006638 
1843.948096  	0.006917 
1845.876912  	0.007457 
1847.805728  	0.007346 
1849.734544  	0.007521 
1851.663360  	0.007347 
1853.592176  	0.007266 
1855.520992  	0.007089 
1857.449808  	0.007300 
1859.378624  	0.007178 
1861.307440  	0.007087 
1863.236256  	0.006810 
1865.165072  	0.006713 
1867.093888  	0.006730 
1869.022704  	0.007671 
1870.951520  	0.007570 
1872.880336  	0.007204 
1874.809152  	0.007056 
1876.737968  	0.007037 
1878.666784  	0.006614 
1880.595600  	0.006794 
1882.524416  	0.006831 
1884.453232  	0.006445 
1886.382048  	0.006190 
1888.310864  	0.006370 
1890.239680  	0.006985 
1892.168496  	0.007178 
1894.097312  	0.006791 
1896.026128  	0.006968 
1897.954944  	0.006727 
1899.883760  	0.006598 
1901.812576  	0.006370 
1903.741392  	0.006290 
1905.670208  	0.006364 
1907.599024  	0.006266 
1909.527840  	0.005903 
1911.456656  	0.006154 
1913.385472  	0.006494 
1915.314288  	0.006721 
1917.243104  	0.006771 
1919.171920  	0.006752 
1921.100736  	0.006384 
1923.029552  	0.007400 
1924.958368  	0.007070 
1926.887184  	0.006450 
1928.816000  	0.006241 
1930.744816  	0.006222 
1932.673632  	0.006292 
1934.602448  	0.006617 
1936.531264  	0.006850 
1938.460080  	0.006480 
1940.388896  	0.005639 
1942.317712  	0.005622 
1944.246528  	0.006074 
1946.175344  	0.006823 
1948.104160  	0.006351 
1950.032976  	0.006450 
1951.961792  	0.006609 
1953.890608  	0.006769 
1955.819424  	0.006386 
1957.748240  	0.006099 
1959.677056  	0.006253 
1961.605872  	0.006173 
1963.534688  	0.005798 
1965.463504  	0.006418 
1967.392320  	0.006783 
1969.321136  	0.006280 
1971.249952  	0.006254 
1973.178768  	0.006802 
1975.107584  	0.005782 
1977.036400  	0.006442 
1978.965216  	0.008278 
1980.894032  	0.008401 
1982.822848  	0.006669 
1984.751664  	0.006656 
1986.680480  	0.007381 
1988.609296  	0.007934 
1990.538112  	0.007633 
1992.466928  	0.007795 
1994.395744  	0.007513 
1996.324560  	0.007234 
1998.253376  	0.006455 
2000.182192  	0.006110 
2002.111008  	0.006677 
2004.039824  	0.006435 
2005.968640  	0.005854 
2007.897456  	0.007161 
2009.826272  	0.007426 
2011.755088  	0.006093 
2013.683904  	0.006385 
2015.612720  	0.007588 
2017.541536  	0.007669 
2019.470352  	0.007876 
2021.399168  	0.008399 
2023.327984  	0.009361 
2025.256800  	0.008680 
2027.185616  	0.007522 
2029.114432  	0.007629 
2031.043248  	0.009197 
2032.972064  	0.009528 
2034.900880  	0.010124 
2036.829696  	0.009681 
2038.758512  	0.008253 
2040.687328  	0.007896 
2042.616144  	0.007313 
2044.544960  	0.007107 
2046.473776  	0.007606 
2048.402592  	0.007605 
2050.331408  	0.008803 
2052.260224  	0.008971 
2054.189040  	0.008581 
2056.117856  	0.007893 
2058.046672  	0.007788 
2059.975488  	0.007728 
2061.904304  	0.007898 
2063.833120  	0.008606 
2065.761936  	0.008821 
2067.690752  	0.008117 
2069.619568  	0.007784 
2071.548384  	0.007315 
2073.477200  	0.007611 
2075.406016  	0.008504 
2077.334832  	0.008717 
2079.263648  	0.008133 
2081.192464  	0.008310 
2083.121280  	0.008912 
2085.050096  	0.009014 
2086.978912  	0.008493 
2088.907728  	0.008073 
2090.836544  	0.007536 
2092.765360  	0.007480 
2094.694176  	0.007499 
2096.622992  	0.007398 
2098.551808  	0.007332 
2100.480624  	0.007635 
2102.409440  	0.007717 
2104.338256  	0.008135 
2106.267072  	0.008174 
2108.195888  	0.007954 
2110.124704  	0.008374 
2112.053520  	0.008683 
2113.982336  	0.008379 
2115.911152  	0.008415 
2117.839968  	0.007982 
2119.768784  	0.007130 
2121.697600  	0.006963 
2123.626416  	0.007047 
2125.555232  	0.006768 
2127.484048  	0.006835 
2129.412864  	0.006682 
2131.341680  	0.005871 
2133.270496  	0.006106 
2135.199312  	0.007111 
2137.128128  	0.007664 
2139.056944  	0.007512 
2140.985760  	0.006705 
2142.914576  	0.006942 
2144.843392  	0.006164 
2146.772208  	0.006601 
2148.701024  	0.007246 
2150.629840  	0.006982 
2152.558656  	0.006263 
2154.487472  	0.005487 
2156.416288  	0.004839 
2158.345104  	0.007451 
2160.273920  	0.010160 
2162.202736  	0.010255 
2164.131552  	0.010076 
2166.060368  	0.010816 
2167.989184  	0.009894 
2169.918000  	0.008654 
2171.846816  	0.008321 
2173.775632  	0.008779 
2175.704448  	0.009693 
2177.633264  	0.009930 
2179.562080  	0.009290 
2181.490896  	0.008467 
2183.419712  	0.008981 
2185.348528  	0.009776 
2187.277344  	0.009140 
2189.206160  	0.008776 
2191.134976  	0.010055 
2193.063792  	0.011671 
2194.992608  	0.011539 
2196.921424  	0.010073 
2198.850240  	0.010486 
2200.779056  	0.010683 
2202.707872  	0.010249 
2204.636688  	0.009795 
2206.565504  	0.009675 
2208.494320  	0.009856 
2210.423136  	0.008597 
2212.351952  	0.008648 
2214.280768  	0.009175 
2216.209584  	0.008863 
2218.138400  	0.009107 
2220.067216  	0.009120 
2221.996032  	0.008485 
2223.924848  	0.007848 
2225.853664  	0.008493 
2227.782480  	0.009370 
2229.711296  	0.009645 
2231.640112  	0.009148 
2233.568928  	0.009055 
2235.497744  	0.009505 
2237.426560  	0.008973 
2239.355376  	0.009130 
2241.284192  	0.009460 
2243.213008  	0.009534 
2245.141824  	0.009444 
2247.070640  	0.008927 
2248.999456  	0.008549 
2250.928272  	0.008789 
2252.857088  	0.008815 
2254.785904  	0.008669 
2256.714720  	0.009265 
2258.643536  	0.009763 
2260.572352  	0.009364 
2262.501168  	0.009216 
2264.429984  	0.009428 
2266.358800  	0.009694 
2268.287616  	0.009657 
2270.216432  	0.009670 
2272.145248  	0.009617 
2274.074064  	0.009528 
2276.002880  	0.009656 
2277.931696  	0.010245 
2279.860512  	0.010528 
2281.789328  	0.010544 
2283.718144  	0.010619 
2285.646960  	0.010776 
2287.575776  	0.010629 
2289.504592  	0.010150 
2291.433408  	0.009710 
2293.362224  	0.009804 
2295.291040  	0.009975 
2297.219856  	0.010260 
2299.148672  	0.010355 
2301.077488  	0.010198 
2303.006304  	0.010344 
2304.935120  	0.010565 
2306.863936  	0.010720 
2308.792752  	0.011005 
2310.721568  	0.011451 
2312.650384  	0.011951 
2314.579200  	0.012183 
2316.508016  	0.012496 
2318.436832  	0.012850 
2320.365648  	0.013604 
2322.294464  	0.014461 
2324.223280  	0.014438 
2326.152096  	0.013681 
2328.080912  	0.013607 
2330.009728  	0.013879 
2331.938544  	0.013919 
2333.867360  	0.013772 
2335.796176  	0.013935 
2337.724992  	0.013995 
2339.653808  	0.014004 
2341.582624  	0.014497 
2343.511440  	0.015395 
2345.440256  	0.015530 
2347.369072  	0.014048 
2349.297888  	0.012330 
2351.226704  	0.012373 
2353.155520  	0.013939 
2355.084336  	0.015174 
2357.013152  	0.016262 
2358.941968  	0.016757 
2360.870784  	0.016399 
2362.799600  	0.016224 
2364.728416  	0.015820 
2366.657232  	0.015511 
2368.586048  	0.014842 
2370.514864  	0.014100 
2372.443680  	0.013433 
2374.372496  	0.012859 
2376.301312  	0.012332 
2378.230128  	0.011690 
2380.158944  	0.010713 
2382.087760  	0.009806 
2384.016576  	0.009437 
2385.945392  	0.009261 
2387.874208  	0.008898 
2389.803024  	0.008659 
2391.731840  	0.008523 
2393.660656  	0.008479 
2395.589472  	0.008653 
2397.518288  	0.008840 
2399.447104  	0.008891 
2401.375920  	0.008674 
2403.304736  	0.008517 
2405.233552  	0.008725 
2407.162368  	0.009011 
2409.091184  	0.009070 
2411.020000  	0.009020 
2412.948816  	0.009057 
2414.877632  	0.008927 
2416.806448  	0.009035 
2418.735264  	0.009190 
2420.664080  	0.009103 
2422.592896  	0.008979 
2424.521712  	0.008967 
2426.450528  	0.009080 
2428.379344  	0.008917 
2430.308160  	0.009024 
2432.236976  	0.009138 
2434.165792  	0.009239 
2436.094608  	0.009552 
2438.023424  	0.009650 
2439.952240  	0.009724 
2441.881056  	0.009700 
2443.809872  	0.009649 
2445.738688  	0.009667 
2447.667504  	0.009779 
2449.596320  	0.009665 
2451.525136  	0.009379 
2453.453952  	0.009439 
2455.382768  	0.009853 
2457.311584  	0.010051 
2459.240400  	0.009958 
2461.169216  	0.009802 
2463.098032  	0.009813 
2465.026848  	0.009821 
2466.955664  	0.009816 
2468.884480  	0.009759 
2470.813296  	0.009711 
2472.742112  	0.009654 
2474.670928  	0.009603 
2476.599744  	0.009727 
2478.528560  	0.009808 
2480.457376  	0.009874 
2482.386192  	0.009877 
2484.315008  	0.009856 
2486.243824  	0.009996 
2488.172640  	0.010014 
2490.101456  	0.009990 
2492.030272  	0.010112 
2493.959088  	0.009917 
2495.887904  	0.009671 
2497.816720  	0.009828 
2499.745536  	0.010020 
2501.674352  	0.010272 
2503.603168  	0.010227 
2505.531984  	0.010152 
2507.460800  	0.010087 
2509.389616  	0.010115 
2511.318432  	0.009862 
2513.247248  	0.010030 
2515.176064  	0.010352 
2517.104880  	0.010612 
2519.033696  	0.010730 
2520.962512  	0.010718 
2522.891328  	0.010828 
2524.820144  	0.010916 
2526.748960  	0.010895 
2528.677776  	0.010658 
2530.606592  	0.010477 
2532.535408  	0.010736 
2534.464224  	0.011083 
2536.393040  	0.010991 
2538.321856  	0.010670 
2540.250672  	0.011010 
2542.179488  	0.011074 
2544.108304  	0.010976 
2546.037120  	0.011190 
2547.965936  	0.011517 
2549.894752  	0.011487 
2551.823568  	0.011488 
2553.752384  	0.011437 
2555.681200  	0.011393 
2557.610016  	0.011468 
2559.538832  	0.011614 
2561.467648  	0.011741 
2563.396464  	0.012124 
2565.325280  	0.012348 
2567.254096  	0.012178 
2569.182912  	0.011891 
2571.111728  	0.011822 
2573.040544  	0.011786 
2574.969360  	0.011879 
2576.898176  	0.012085 
2578.826992  	0.012307 
2580.755808  	0.012213 
2582.684624  	0.012040 
2584.613440  	0.011928 
2586.542256  	0.012143 
2588.471072  	0.012389 
2590.399888  	0.012334 
2592.328704  	0.012377 
2594.257520  	0.012609 
2596.186336  	0.012876 
2598.115152  	0.012999 
2600.043968  	0.012987 
2601.972784  	0.012878 
2603.901600  	0.012884 
2605.830416  	0.012938 
2607.759232  	0.012734 
2609.688048  	0.012876 
2611.616864  	0.013066 
2613.545680  	0.013068 
2615.474496  	0.013062 
2617.403312  	0.013041 
2619.332128  	0.013227 
2621.260944  	0.013436 
2623.189760  	0.013414 
2625.118576  	0.013446 
2627.047392  	0.013516 
2628.976208  	0.013816 
2630.905024  	0.013930 
2632.833840  	0.013980 
2634.762656  	0.014028 
2636.691472  	0.013974 
2638.620288  	0.013905 
2640.549104  	0.013964 
2642.477920  	0.014019 
2644.406736  	0.013895 
2646.335552  	0.014015 
2648.264368  	0.014214 
2650.193184  	0.014282 
2652.122000  	0.014347 
2654.050816  	0.014452 
2655.979632  	0.014357 
2657.908448  	0.014351 
2659.837264  	0.014351 
2661.766080  	0.014155 
2663.694896  	0.014028 
2665.623712  	0.013943 
2667.552528  	0.013973 
2669.481344  	0.014147 
2671.410160  	0.014297 
2673.338976  	0.014399 
2675.267792  	0.014467 
2677.196608  	0.014496 
2679.125424  	0.014576 
2681.054240  	0.014619 
2682.983056  	0.014632 
2684.911872  	0.014685 
2686.840688  	0.014702 
2688.769504  	0.014750 
2690.698320  	0.014751 
2692.627136  	0.014854 
2694.555952  	0.014951 
2696.484768  	0.014896 
2698.413584  	0.014916 
2700.342400  	0.015013 
2702.271216  	0.015120 
2704.200032  	0.015259 
2706.128848  	0.015443 
2708.057664  	0.015517 
2709.986480  	0.015479 
2711.915296  	0.015510 
2713.844112  	0.015597 
2715.772928  	0.015687 
2717.701744  	0.015788 
2719.630560  	0.015783 
2721.559376  	0.015772 
2723.488192  	0.015882 
2725.417008  	0.016125 
2727.345824  	0.016177 
2729.274640  	0.016125 
2731.203456  	0.016142 
2733.132272  	0.016226 
2735.061088  	0.016294 
2736.989904  	0.016349 
2738.918720  	0.016475 
2740.847536  	0.016506 
2742.776352  	0.016571 
2744.705168  	0.016719 
2746.633984  	0.016758 
2748.562800  	0.016800 
2750.491616  	0.016896 
2752.420432  	0.016939 
2754.349248  	0.016939 
2756.278064  	0.016905 
2758.206880  	0.016923 
2760.135696  	0.017105 
2762.064512  	0.017137 
2763.993328  	0.017085 
2765.922144  	0.017149 
2767.850960  	0.017187 
2769.779776  	0.017230 
2771.708592  	0.017347 
2773.637408  	0.017324 
2775.566224  	0.017242 
2777.495040  	0.017217 
2779.423856  	0.017295 
2781.352672  	0.017406 
2783.281488  	0.017456 
2785.210304  	0.017436 
2787.139120  	0.017554 
2789.067936  	0.017614 
2790.996752  	0.017721 
2792.925568  	0.017857 
2794.854384  	0.017973 
2796.783200  	0.018006 
2798.712016  	0.017947 
2800.640832  	0.017967 
2802.569648  	0.018037 
2804.498464  	0.018148 
2806.427280  	0.018275 
2808.356096  	0.018403 
2810.284912  	0.018519 
2812.213728  	0.018450 
2814.142544  	0.018469 
2816.071360  	0.018649 
2818.000176  	0.018678 
2819.928992  	0.018644 
2821.857808  	0.018776 
2823.786624  	0.018915 
2825.715440  	0.018971 
2827.644256  	0.018930 
2829.573072  	0.019015 
2831.501888  	0.019055 
2833.430704  	0.019107 
2835.359520  	0.019293 
2837.288336  	0.019366 
2839.217152  	0.019406 
2841.145968  	0.019450 
2843.074784  	0.019567 
2845.003600  	0.019680 
2846.932416  	0.019831 
2848.861232  	0.020100 
2850.790048  	0.020336 
2852.718864  	0.020491 
2854.647680  	0.020557 
2856.576496  	0.020731 
2858.505312  	0.020969 
2860.434128  	0.021276 
2862.362944  	0.021574 
2864.291760  	0.021815 
2866.220576  	0.021926 
2868.149392  	0.022291 
2870.078208  	0.022772 
2872.007024  	0.023061 
2873.935840  	0.023415 
2875.864656  	0.023867 
2877.793472  	0.024423 
2879.722288  	0.025009 
2881.651104  	0.025469 
2883.579920  	0.025764 
2885.508736  	0.025947 
2887.437552  	0.026123 
2889.366368  	0.026329 
2891.295184  	0.026614 
2893.224000  	0.026883 
2895.152816  	0.026987 
2897.081632  	0.026831 
2899.010448  	0.027214 
2900.939264  	0.027930 
2902.868080  	0.027876 
2904.796896  	0.027643 
2906.725712  	0.027659 
2908.654528  	0.027681 
2910.583344  	0.027917 
2912.512160  	0.028304 
2914.440976  	0.028428 
2916.369792  	0.028465 
2918.298608  	0.028713 
2920.227424  	0.028971 
2922.156240  	0.029167 
2924.085056  	0.029408 
2926.013872  	0.029708 
2927.942688  	0.030023 
2929.871504  	0.030261 
2931.800320  	0.030513 
2933.729136  	0.030652 
2935.657952  	0.030626 
2937.586768  	0.030801 
2939.515584  	0.030956 
2941.444400  	0.031156 
2943.373216  	0.031388 
2945.302032  	0.031522 
2947.230848  	0.031677 
2949.159664  	0.031920 
2951.088480  	0.032283 
2953.017296  	0.032512 
2954.946112  	0.032441 
2956.874928  	0.032523 
2958.803744  	0.032712 
2960.732560  	0.032697 
2962.661376  	0.032780 
2964.590192  	0.032917 
2966.519008  	0.033238 
2968.447824  	0.033516 
2970.376640  	0.033583 
2972.305456  	0.033406 
2974.234272  	0.033026 
2976.163088  	0.032675 
2978.091904  	0.032507 
2980.020720  	0.032429 
2981.949536  	0.032414 
2983.878352  	0.032320 
2985.807168  	0.032390 
2987.735984  	0.032756 
2989.664800  	0.032730 
2991.593616  	0.031767 
2993.522432  	0.031176 
2995.451248  	0.031059 
2997.380064  	0.030881 
2999.308880  	0.030795 
3001.237696  	0.030575 
3003.166512  	0.030077 
3005.095328  	0.029711 
3007.024144  	0.029500 
3008.952960  	0.029292 
3010.881776  	0.029232 
3012.810592  	0.029017 
3014.739408  	0.028642 
3016.668224  	0.028612 
3018.597040  	0.028429 
3020.525856  	0.028063 
3022.454672  	0.027859 
3024.383488  	0.027847 
3026.312304  	0.027850 
3028.241120  	0.027691 
3030.169936  	0.027510 
3032.098752  	0.027623 
3034.027568  	0.027478 
3035.956384  	0.027238 
3037.885200  	0.027227 
3039.814016  	0.027357 
3041.742832  	0.027489 
3043.671648  	0.027697 
3045.600464  	0.027794 
3047.529280  	0.027741 
3049.458096  	0.027767 
3051.386912  	0.027894 
3053.315728  	0.028064 
3055.244544  	0.028211 
3057.173360  	0.028599 
3059.102176  	0.028753 
3061.030992  	0.028821 
3062.959808  	0.029018 
3064.888624  	0.029309 
3066.817440  	0.029595 
3068.746256  	0.029697 
3070.675072  	0.029848 
3072.603888  	0.030049 
3074.532704  	0.030315 
3076.461520  	0.030538 
3078.390336  	0.030667 
3080.319152  	0.030989 
3082.247968  	0.031334 
3084.176784  	0.031722 
3086.105600  	0.031929 
3088.034416  	0.032045 
3089.963232  	0.032352 
3091.892048  	0.032651 
3093.820864  	0.032864 
3095.749680  	0.033133 
3097.678496  	0.033177 
3099.607312  	0.033327 
3101.536128  	0.033604 
3103.464944  	0.033882 
3105.393760  	0.034160 
3107.322576  	0.034475 
3109.251392  	0.034701 
3111.180208  	0.034852 
3113.109024  	0.035010 
3115.037840  	0.035155 
3116.966656  	0.035328 
3118.895472  	0.035544 
3120.824288  	0.035569 
3122.753104  	0.035756 
3124.681920  	0.036139 
3126.610736  	0.036377 
3128.539552  	0.036478 
3130.468368  	0.036384 
3132.397184  	0.036374 
3134.326000  	0.036601 
3136.254816  	0.036896 
3138.183632  	0.037150 
3140.112448  	0.037119 
3142.041264  	0.037174 
3143.970080  	0.037487 
3145.898896  	0.037652 
3147.827712  	0.037820 
3149.756528  	0.038050 
3151.685344  	0.038374 
3153.614160  	0.038683 
3155.542976  	0.038798 
3157.471792  	0.038824 
3159.400608  	0.039175 
3161.329424  	0.039590 
3163.258240  	0.039766 
3165.187056  	0.040014 
3167.115872  	0.040135 
3169.044688  	0.040215 
3170.973504  	0.040298 
3172.902320  	0.040360 
3174.831136  	0.040474 
3176.759952  	0.040805 
3178.688768  	0.041098 
3180.617584  	0.041132 
3182.546400  	0.041158 
3184.475216  	0.041415 
3186.404032  	0.041427 
3188.332848  	0.041195 
3190.261664  	0.041408 
3192.190480  	0.041686 
3194.119296  	0.041562 
3196.048112  	0.041466 
3197.976928  	0.041714 
3199.905744  	0.041768 
3201.834560  	0.041697 
3203.763376  	0.041733 
3205.692192  	0.041840 
3207.621008  	0.041738 
3209.549824  	0.041522 
3211.478640  	0.041487 
3213.407456  	0.041446 
3215.336272  	0.041656 
3217.265088  	0.041512 
3219.193904  	0.041202 
3221.122720  	0.041128 
3223.051536  	0.041049 
3224.980352  	0.040880 
3226.909168  	0.040730 
3228.837984  	0.040667 
3230.766800  	0.040820 
3232.695616  	0.040946 
3234.624432  	0.040618 
3236.553248  	0.040428 
3238.482064  	0.040407 
3240.410880  	0.040355 
3242.339696  	0.040386 
3244.268512  	0.040516 
3246.197328  	0.040440 
3248.126144  	0.040370 
3250.054960  	0.040436 
3251.983776  	0.040280 
3253.912592  	0.040277 
3255.841408  	0.040379 
3257.770224  	0.040447 
3259.699040  	0.040609 
3261.627856  	0.040762 
3263.556672  	0.040747 
3265.485488  	0.040782 
3267.414304  	0.041060 
3269.343120  	0.041032 
3271.271936  	0.040935 
3273.200752  	0.041288 
3275.129568  	0.041579 
3277.058384  	0.041495 
3278.987200  	0.041521 
3280.916016  	0.041619 
3282.844832  	0.041633 
3284.773648  	0.041807 
3286.702464  	0.041954 
3288.631280  	0.042069 
3290.560096  	0.042210 
3292.488912  	0.042404 
3294.417728  	0.042312 
3296.346544  	0.042291 
3298.275360  	0.042531 
3300.204176  	0.042868 
3302.132992  	0.043004 
3304.061808  	0.043267 
3305.990624  	0.043531 
3307.919440  	0.043573 
3309.848256  	0.043606 
3311.777072  	0.043608 
3313.705888  	0.043668 
3315.634704  	0.043958 
3317.563520  	0.044261 
3319.492336  	0.044336 
3321.421152  	0.044572 
3323.349968  	0.044778 
3325.278784  	0.044918 
3327.207600  	0.044902 
3329.136416  	0.044815 
3331.065232  	0.044672 
3332.994048  	0.044845 
3334.922864  	0.044921 
3336.851680  	0.044966 
3338.780496  	0.045043 
3340.709312  	0.044890 
3342.638128  	0.044773 
3344.566944  	0.044752 
3346.495760  	0.044748 
3348.424576  	0.044762 
3350.353392  	0.044626 
3352.282208  	0.044461 
3354.211024  	0.044585 
3356.139840  	0.044553 
3358.068656  	0.044338 
3359.997472  	0.044052 
3361.926288  	0.043770 
3363.855104  	0.043605 
3365.783920  	0.043663 
3367.712736  	0.043735 
3369.641552  	0.043285 
3371.570368  	0.042895 
3373.499184  	0.042873 
3375.428000  	0.042785 
3377.356816  	0.042589 
3379.285632  	0.042566 
3381.214448  	0.042476 
3383.143264  	0.042163 
3385.072080  	0.042134 
3387.000896  	0.042010 
3388.929712  	0.041744 
3390.858528  	0.041549 
3392.787344  	0.041471 
3394.716160  	0.041155 
3396.644976  	0.040928 
3398.573792  	0.040838 
3400.502608  	0.040537 
3402.431424  	0.040239 
3404.360240  	0.040042 
3406.289056  	0.039834 
3408.217872  	0.039653 
3410.146688  	0.039519 
3412.075504  	0.039572 
3414.004320  	0.039526 
3415.933136  	0.039189 
3417.861952  	0.038719 
3419.790768  	0.038595 
3421.719584  	0.038596 
3423.648400  	0.038316 
3425.577216  	0.038083 
3427.506032  	0.037911 
3429.434848  	0.037446 
3431.363664  	0.037281 
3433.292480  	0.037269 
3435.221296  	0.037132 
3437.150112  	0.037021 
3439.078928  	0.036925 
3441.007744  	0.036613 
3442.936560  	0.036435 
3444.865376  	0.035920 
3446.794192  	0.035540 
3448.723008  	0.035622 
3450.651824  	0.035308 
3452.580640  	0.034937 
3454.509456  	0.034546 
3456.438272  	0.034375 
3458.367088  	0.034314 
3460.295904  	0.033974 
3462.224720  	0.033627 
3464.153536  	0.033301 
3466.082352  	0.033028 
3468.011168  	0.032902 
3469.939984  	0.032620 
3471.868800  	0.032294 
3473.797616  	0.032131 
3475.726432  	0.031773 
3477.655248  	0.031277 
3479.584064  	0.030942 
3481.512880  	0.030941 
3483.441696  	0.030687 
3485.370512  	0.030085 
3487.299328  	0.029871 
3489.228144  	0.029708 
3491.156960  	0.029034 
3493.085776  	0.028596 
3495.014592  	0.028572 
3496.943408  	0.028548 
3498.872224  	0.028019 
3500.801040  	0.027488 
3502.729856  	0.027526 
3504.658672  	0.027577 
3506.587488  	0.026864 
3508.516304  	0.026388 
3510.445120  	0.026365 
3512.373936  	0.026282 
3514.302752  	0.026193 
3516.231568  	0.025768 
3518.160384  	0.025371 
3520.089200  	0.025092 
3522.018016  	0.024753 
3523.946832  	0.024796 
3525.875648  	0.024602 
3527.804464  	0.024353 
3529.733280  	0.024192 
3531.662096  	0.023866 
3533.590912  	0.023491 
3535.519728  	0.023357 
3537.448544  	0.023437 
3539.377360  	0.023035 
3541.306176  	0.022411 
3543.234992  	0.021895 
3545.163808  	0.022035 
3547.092624  	0.022285 
3549.021440  	0.021527 
3550.950256  	0.021047 
3552.879072  	0.021495 
3554.807888  	0.021500 
3556.736704  	0.021090 
3558.665520  	0.020648 
3560.594336  	0.020529 
3562.523152  	0.020152 
3564.451968  	0.019339 
3566.380784  	0.019486 
3568.309600  	0.020470 
3570.238416  	0.019846 
3572.167232  	0.018926 
3574.096048  	0.018583 
3576.024864  	0.018425 
3577.953680  	0.018137 
3579.882496  	0.017898 
3581.811312  	0.017645 
3583.740128  	0.016868 
3585.668944  	0.016161 
3587.597760  	0.017350 
3589.526576  	0.017704 
3591.455392  	0.016239 
3593.384208  	0.015829 
3595.313024  	0.015947 
3597.241840  	0.015805 
3599.170656  	0.015483 
3601.099472  	0.015506 
3603.028288  	0.015203 
3604.957104  	0.014202 
3606.885920  	0.013541 
3608.814736  	0.014178 
3610.743552  	0.013552 
3612.672368  	0.012920 
3614.601184  	0.012926 
3616.530000  	0.012010 
3618.458816  	0.012374 
3620.387632  	0.013353 
3622.316448  	0.012416 
3624.245264  	0.011415 
3626.174080  	0.010102 
3628.102896  	0.010436 
3630.031712  	0.013077 
3631.960528  	0.011547 
3633.889344  	0.010874 
3635.818160  	0.010372 
3637.746976  	0.009966 
3639.675792  	0.010088 
3641.604608  	0.009876 
3643.533424  	0.009080 
3645.462240  	0.007683 
3647.391056  	0.007672 
3649.319872  	0.009345 
3651.248688  	0.011139 
3653.177504  	0.009492 
3655.106320  	0.008432 
3657.035136  	0.009819 
3658.963952  	0.009398 
3660.892768  	0.008673 
3662.821584  	0.008453 
3664.750400  	0.008034 
3666.679216  	0.006921 
3668.608032  	0.006453 
3670.536848  	0.008375 
3672.465664  	0.007431 
3674.394480  	0.006522 
3676.323296  	0.009877 
3678.252112  	0.008697 
3680.180928  	0.007759 
3682.109744  	0.007263 
3684.038560  	0.006860 
3685.967376  	0.005642 
3687.896192  	0.005665 
3689.825008  	0.007275 
3691.753824  	0.007820 
3693.682640  	0.007081 
3695.611456  	0.006319 
3697.540272  	0.006087 
3699.469088  	0.005401 
3701.397904  	0.006142 
3703.326720  	0.006882 
3705.255536  	0.005976 
3707.184352  	0.004933 
3709.113168  	0.004774 
3711.041984  	0.005744 
3712.970800  	0.006646 
3714.899616  	0.005635 
3716.828432  	0.004828 
3718.757248  	0.004790 
3720.686064  	0.004893 
3722.614880  	0.005527 
3724.543696  	0.005751 
3726.472512  	0.006123 
3728.401328  	0.005534 
3730.330144  	0.004062 
3732.258960  	0.004208 
3734.187776  	0.004852 
3736.116592  	0.006682 
3738.045408  	0.006169 
3739.974224  	0.004719 
3741.903040  	0.003313 
3743.831856  	0.004845 
3745.760672  	0.007075 
3747.689488  	0.004094 
3749.618304  	0.004097 
3751.547120  	0.006085 
3753.475936  	0.006920 
3755.404752  	0.005274 
3757.333568  	0.004433 
3759.262384  	0.004917 
3761.191200  	0.005604 
3763.120016  	0.004662 
3765.048832  	0.004865 
3766.977648  	0.004851 
3768.906464  	0.004908 
3770.835280  	0.006202 
3772.764096  	0.005785 
3774.692912  	0.005123 
3776.621728  	0.004432 
3778.550544  	0.004626 
3780.479360  	0.005564 
3782.408176  	0.004895 
3784.336992  	0.004765 
3786.265808  	0.005014 
3788.194624  	0.005190 
3790.123440  	0.005102 
3792.052256  	0.004829 
3793.981072  	0.004156 
3795.909888  	0.004509 
3797.838704  	0.004719 
3799.767520  	0.003757 
3801.696336  	0.006022 
3803.625152  	0.005808 
3805.553968  	0.004226 
3807.482784  	0.005866 
3809.411600  	0.005865 
3811.340416  	0.005164 
3813.269232  	0.003961 
3815.198048  	0.003986 
3817.126864  	0.005352 
3819.055680  	0.003774 
3820.984496  	0.005443 
3822.913312  	0.006747 
3824.842128  	0.004939 
3826.770944  	0.004916 
3828.699760  	0.004801 
3830.628576  	0.004617 
3832.557392  	0.005055 
3834.486208  	0.004420 
3836.415024  	0.004015 
3838.343840  	0.005151 
3840.272656  	0.005481 
3842.201472  	0.005066 
3844.130288  	0.005387 
3846.059104  	0.005331 
3847.987920  	0.004401 
3849.916736  	0.003207 
3851.845552  	0.002783 
3853.774368  	0.007143 
3855.703184  	0.007273 
3857.632000  	0.005285 
3859.560816  	0.004208 
3861.489632  	0.004010 
3863.418448  	0.004504 
3865.347264  	0.005466 
3867.276080  	0.004318 
3869.204896  	0.004581 
3871.133712  	0.006131 
3873.062528  	0.005112 
3874.991344  	0.005767 
3876.920160  	0.004724 
3878.848976  	0.003998 
3880.777792  	0.005079 
3882.706608  	0.004818 
3884.635424  	0.004584 
3886.564240  	0.006084 
3888.493056  	0.004850 
3890.421872  	0.004456 
3892.350688  	0.005415 
3894.279504  	0.005091 
3896.208320  	0.004461 
3898.137136  	0.004413 
3900.065952  	0.004740 
3901.994768  	0.004988 
3903.923584  	0.005909 
3905.852400  	0.006334 
3907.781216  	0.005543 
3909.710032  	0.004794 
3911.638848  	0.004672 
3913.567664  	0.004562 
3915.496480  	0.004551 
3917.425296  	0.005345 
3919.354112  	0.005498 
3921.282928  	0.005223 
3923.211744  	0.004974 
3925.140560  	0.005450 
3927.069376  	0.005168 
3928.998192  	0.004626 
3930.927008  	0.004828 
3932.855824  	0.005584 
3934.784640  	0.005391 
3936.713456  	0.005258 
3938.642272  	0.005225 
3940.571088  	0.004833 
3942.499904  	0.005226 
3944.428720  	0.005360 
3946.357536  	0.004886 
3948.286352  	0.005076 
3950.215168  	0.005263 
3952.143984  	0.005227 
3954.072800  	0.005091 
3956.001616  	0.004938 
3957.930432  	0.004951 
3959.859248  	0.005119 
3961.788064  	0.005267 
3963.716880  	0.005323 
3965.645696  	0.005131 
3967.574512  	0.005130 
3969.503328  	0.005248 
3971.432144  	0.005148 
3973.360960  	0.005073 
3975.289776  	0.005172 
3977.218592  	0.005205 
3979.147408  	0.005328 
3981.076224  	0.005156 
3983.005040  	0.004961 
3984.933856  	0.005022 
3986.862672  	0.005201 
3988.791488  	0.005057 
3990.720304  	0.005063 
3992.649120  	0.005118 
3994.577936  	0.005112 
3996.506752  	0.005005 
3998.435568  	0.005139 
4000.364384  	0.005292 