##TITLE=No Description
##DATA TYPE=INFRARED SPECTRUM
##XUNITS=1/CM
##YUNITS=Abs
399.264912  	0.620585 
401.193728  	0.614704 
403.122544  	0.597521 
405.051360  	0.577734 
406.980176  	0.586709 
408.908992  	0.582906 
410.837808  	0.587100 
412.766624  	0.584535 
414.695440  	0.579425 
416.624256  	0.573852 
418.553072  	0.584717 
420.481888  	0.574121 
422.410704  	0.561992 
424.339520  	0.550379 
426.268336  	0.551667 
428.197152  	0.546052 
430.125968  	0.543973 
432.054784  	0.538160 
433.983600  	0.540820 
435.912416  	0.538463 
437.841232  	0.537213 
439.770048  	0.535684 
441.698864  	0.534280 
443.627680  	0.527894 
445.556496  	0.526374 
447.485312  	0.521043 
449.414128  	0.519835 
451.342944  	0.516443 
453.271760  	0.514518 
455.200576  	0.509765 
457.129392  	0.511960 
459.058208  	0.512409 
460.987024  	0.514134 
462.915840  	0.510432 
464.844656  	0.516215 
466.773472  	0.518303 
468.702288  	0.517318 
470.631104  	0.510273 
472.559920  	0.511186 
474.488736  	0.508846 
476.417552  	0.506192 
478.346368  	0.501272 
480.275184  	0.508057 
482.204000  	0.508667 
484.132816  	0.507938 
486.061632  	0.503642 
487.990448  	0.504719 
489.919264  	0.502429 
491.848080  	0.499973 
493.776896  	0.496222 
495.705712  	0.497824 
497.634528  	0.497623 
499.563344  	0.497804 
501.492160  	0.496573 
503.420976  	0.493387 
505.349792  	0.491152 
507.278608  	0.491130 
509.207424  	0.487551 
511.136240  	0.489054 
513.065056  	0.491733 
514.993872  	0.492417 
516.922688  	0.489264 
518.851504  	0.489726 
520.780320  	0.490036 
522.709136  	0.490584 
524.637952  	0.487591 
526.566768  	0.487406 
528.495584  	0.486139 
530.424400  	0.484310 
532.353216  	0.480558 
534.282032  	0.478218 
536.210848  	0.474602 
538.139664  	0.471444 
540.068480  	0.466406 
541.997296  	0.461988 
543.926112  	0.457876 
545.854928  	0.457132 
547.783744  	0.453609 
549.712560  	0.449457 
551.641376  	0.445526 
553.570192  	0.443097 
555.499008  	0.440775 
557.427824  	0.438320 
559.356640  	0.434804 
561.285456  	0.431073 
563.214272  	0.425998 
565.143088  	0.424174 
567.071904  	0.420978 
569.000720  	0.418270 
570.929536  	0.416141 
572.858352  	0.413055 
574.787168  	0.409005 
576.715984  	0.406054 
578.644800  	0.401886 
580.573616  	0.398967 
582.502432  	0.395293 
584.431248  	0.392848 
586.360064  	0.390505 
588.288880  	0.388441 
590.217696  	0.386245 
592.146512  	0.384442 
594.075328  	0.382078 
596.004144  	0.379507 
597.932960  	0.377439 
599.861776  	0.376553 
601.790592  	0.375326 
603.719408  	0.374612 
605.648224  	0.372192 
607.577040  	0.371312 
609.505856  	0.370505 
611.434672  	0.368280 
613.363488  	0.366395 
615.292304  	0.365387 
617.221120  	0.363524 
619.149936  	0.361680 
621.078752  	0.359024 
623.007568  	0.357077 
624.936384  	0.355294 
626.865200  	0.354297 
628.794016  	0.352901 
630.722832  	0.351332 
632.651648  	0.350209 
634.580464  	0.349657 
636.509280  	0.349463 
638.438096  	0.348470 
640.366912  	0.346987 
642.295728  	0.345890 
644.224544  	0.343438 
646.153360  	0.340418 
648.082176  	0.336901 
650.010992  	0.334365 
651.939808  	0.331147 
653.868624  	0.327187 
655.797440  	0.323323 
657.726256  	0.320849 
659.655072  	0.317495 
661.583888  	0.313771 
663.512704  	0.310239 
665.441520  	0.307195 
667.370336  	0.302060 
669.299152  	0.298450 
671.227968  	0.297881 
673.156784  	0.295883 
675.085600  	0.293166 
677.014416  	0.290609 
678.943232  	0.288821 
680.872048  	0.287203 
682.800864  	0.285464 
684.729680  	0.284116 
686.658496  	0.282080 
688.587312  	0.280387 
690.516128  	0.278544 
692.444944  	0.277045 
694.373760  	0.275583 
696.302576  	0.273903 
698.231392  	0.271539 
700.160208  	0.269319 
702.089024  	0.266918 
704.017840  	0.264800 
705.946656  	0.261730 
707.875472  	0.259068 
709.804288  	0.257046 
711.733104  	0.255594 
713.661920  	0.254273 
715.590736  	0.252961 
717.519552  	0.251730 
719.448368  	0.251496 
721.377184  	0.252298 
723.306000  	0.252814 
725.234816  	0.252401 
727.163632  	0.250732 
729.092448  	0.248141 
731.021264  	0.245952 
732.950080  	0.243647 
734.878896  	0.240924 
736.807712  	0.238431 
738.736528  	0.236455 
740.665344  	0.234659 
742.594160  	0.233223 
744.522976  	0.231638 
746.451792  	0.230240 
748.380608  	0.229126 
750.309424  	0.228215 
752.238240  	0.227099 
754.167056  	0.226329 
756.095872  	0.225244 
758.024688  	0.224091 
759.953504  	0.223001 
761.882320  	0.222559 
763.811136  	0.222254 
765.739952  	0.221395 
767.668768  	0.219913 
769.597584  	0.218305 
771.526400  	0.217692 
773.455216  	0.218583 
775.384032  	0.220061 
777.312848  	0.222489 
779.241664  	0.225138 
781.170480  	0.225640 
783.099296  	0.222842 
785.028112  	0.218202 
786.956928  	0.213090 
788.885744  	0.208538 
790.814560  	0.204959 
792.743376  	0.202572 
794.672192  	0.200766 
796.601008  	0.200105 
798.529824  	0.198244 
800.458640  	0.194983 
802.387456  	0.191756 
804.316272  	0.189925 
806.245088  	0.188972 
808.173904  	0.188364 
810.102720  	0.188093 
812.031536  	0.187821 
813.960352  	0.187167 
815.889168  	0.186385 
817.817984  	0.185879 
819.746800  	0.185318 
821.675616  	0.184693 
823.604432  	0.184000 
825.533248  	0.182828 
827.462064  	0.181532 
829.390880  	0.180372 
831.319696  	0.178985 
833.248512  	0.177423 
835.177328  	0.175909 
837.106144  	0.173626 
839.034960  	0.170677 
840.963776  	0.167919 
842.892592  	0.165413 
844.821408  	0.162571 
846.750224  	0.159826 
848.679040  	0.157950 
850.607856  	0.156107 
852.536672  	0.154433 
854.465488  	0.152650 
856.394304  	0.150648 
858.323120  	0.148937 
860.251936  	0.147057 
862.180752  	0.144782 
864.109568  	0.142721 
866.038384  	0.141116 
867.967200  	0.139390 
869.896016  	0.137800 
871.824832  	0.136650 
873.753648  	0.135964 
875.682464  	0.136016 
877.611280  	0.135589 
879.540096  	0.134914 
881.468912  	0.135555 
883.397728  	0.135958 
885.326544  	0.136177 
887.255360  	0.135911 
889.184176  	0.134886 
891.112992  	0.133217 
893.041808  	0.131772 
894.970624  	0.130013 
896.899440  	0.127518 
898.828256  	0.124652 
900.757072  	0.121855 
902.685888  	0.119571 
904.614704  	0.118409 
906.543520  	0.118223 
908.472336  	0.119100 
910.401152  	0.120956 
912.329968  	0.123298 
914.258784  	0.125730 
916.187600  	0.127798 
918.116416  	0.129226 
920.045232  	0.129844 
921.974048  	0.129552 
923.902864  	0.128886 
925.831680  	0.127882 
927.760496  	0.126838 
929.689312  	0.125795 
931.618128  	0.125322 
933.546944  	0.125269 
935.475760  	0.125267 
937.404576  	0.125134 
939.333392  	0.125301 
941.262208  	0.126063 
943.191024  	0.127519 
945.119840  	0.130066 
947.048656  	0.133475 
948.977472  	0.137855 
950.906288  	0.142999 
952.835104  	0.148453 
954.763920  	0.153908 
956.692736  	0.159027 
958.621552  	0.163271 
960.550368  	0.166133 
962.479184  	0.167188 
964.408000  	0.165803 
966.336816  	0.162655 
968.265632  	0.157353 
970.194448  	0.150776 
972.123264  	0.143133 
974.052080  	0.134813 
975.980896  	0.126677 
977.909712  	0.119062 
979.838528  	0.112389 
981.767344  	0.106979 
983.696160  	0.103014 
985.624976  	0.100723 
987.553792  	0.100231 
989.482608  	0.101270 
991.411424  	0.103675 
993.340240  	0.107453 
995.269056  	0.112309 
997.197872  	0.117285 
999.126688  	0.122030 
1001.055504  	0.126817 
1002.984320  	0.131649 
1004.913136  	0.136086 
1006.841952  	0.140008 
1008.770768  	0.143247 
1010.699584  	0.145293 
1012.628400  	0.146569 
1014.557216  	0.147163 
1016.486032  	0.147370 
1018.414848  	0.147463 
1020.343664  	0.147706 
1022.272480  	0.147505 
1024.201296  	0.146469 
1026.130112  	0.143461 
1028.058928  	0.142396 
1029.987744  	0.144953 
1031.916560  	0.146130 
1033.845376  	0.146346 
1035.774192  	0.145806 
1037.703008  	0.145817 
1039.631824  	0.148876 
1041.560640  	0.153215 
1043.489456  	0.158840 
1045.418272  	0.166296 
1047.347088  	0.175868 
1049.275904  	0.186235 
1051.204720  	0.196411 
1053.133536  	0.205435 
1055.062352  	0.212737 
1056.991168  	0.216977 
1058.919984  	0.221692 
1060.848800  	0.225073 
1062.777616  	0.224295 
1064.706432  	0.219202 
1066.635248  	0.215282 
1068.564064  	0.215233 
1070.492880  	0.212705 
1072.421696  	0.207159 
1074.350512  	0.202223 
1076.279328  	0.198687 
1078.208144  	0.196964 
1080.136960  	0.196943 
1082.065776  	0.197566 
1083.994592  	0.198012 
1085.923408  	0.198349 
1087.852224  	0.198165 
1089.781040  	0.197141 
1091.709856  	0.195379 
1093.638672  	0.191637 
1095.567488  	0.185581 
1097.496304  	0.178986 
1099.425120  	0.171462 
1101.353936  	0.163615 
1103.282752  	0.155696 
1105.211568  	0.147730 
1107.140384  	0.139920 
1109.069200  	0.132004 
1110.998016  	0.124757 
1112.926832  	0.118059 
1114.855648  	0.111439 
1116.784464  	0.105117 
1118.713280  	0.099450 
1120.642096  	0.094262 
1122.570912  	0.089075 
1124.499728  	0.084107 
1126.428544  	0.079589 
1128.357360  	0.075330 
1130.286176  	0.071364 
1132.214992  	0.067941 
1134.143808  	0.065079 
1136.072624  	0.062504 
1138.001440  	0.060164 
1139.930256  	0.057702 
1141.859072  	0.055520 
1143.787888  	0.053322 
1145.716704  	0.051423 
1147.645520  	0.050021 
1149.574336  	0.048768 
1151.503152  	0.047611 
1153.431968  	0.047126 
1155.360784  	0.047007 
1157.289600  	0.047351 
1159.218416  	0.048083 
1161.147232  	0.049143 
1163.076048  	0.050146 
1165.004864  	0.051500 
1166.933680  	0.052894 
1168.862496  	0.054550 
1170.791312  	0.056295 
1172.720128  	0.058243 
1174.648944  	0.060127 
1176.577760  	0.062040 
1178.506576  	0.063926 
1180.435392  	0.065731 
1182.364208  	0.067511 
1184.293024  	0.069651 
1186.221840  	0.071900 
1188.150656  	0.074186 
1190.079472  	0.076906 
1192.008288  	0.080389 
1193.937104  	0.084218 
1195.865920  	0.088592 
1197.794736  	0.093270 
1199.723552  	0.098397 
1201.652368  	0.103805 
1203.581184  	0.109296 
1205.510000  	0.114699 
1207.438816  	0.120455 
1209.367632  	0.125950 
1211.296448  	0.130851 
1213.225264  	0.135343 
1215.154080  	0.139077 
1217.082896  	0.142057 
1219.011712  	0.144574 
1220.940528  	0.146993 
1222.869344  	0.148902 
1224.798160  	0.149996 
1226.726976  	0.150822 
1228.655792  	0.151534 
1230.584608  	0.151728 
1232.513424  	0.151613 
1234.442240  	0.150892 
1236.371056  	0.149361 
1238.299872  	0.146763 
1240.228688  	0.142149 
1242.157504  	0.137350 
1244.086320  	0.133527 
1246.015136  	0.128096 
1247.943952  	0.121715 
1249.872768  	0.115428 
1251.801584  	0.110201 
1253.730400  	0.105048 
1255.659216  	0.099843 
1257.588032  	0.094692 
1259.516848  	0.089898 
1261.445664  	0.085713 
1263.374480  	0.081892 
1265.303296  	0.078563 
1267.232112  	0.075925 
1269.160928  	0.073890 
1271.089744  	0.072533 
1273.018560  	0.071882 
1274.947376  	0.071662 
1276.876192  	0.071414 
1278.805008  	0.070964 
1280.733824  	0.069836 
1282.662640  	0.067588 
1284.591456  	0.064617 
1286.520272  	0.061620 
1288.449088  	0.059111 
1290.377904  	0.057019 
1292.306720  	0.055552 
1294.235536  	0.053948 
1296.164352  	0.051597 
1298.093168  	0.048608 
1300.021984  	0.045669 
1301.950800  	0.042907 
1303.879616  	0.040614 
1305.808432  	0.038677 
1307.737248  	0.037104 
1309.666064  	0.035663 
1311.594880  	0.035010 
1313.523696  	0.034722 
1315.452512  	0.034429 
1317.381328  	0.034629 
1319.310144  	0.035100 
1321.238960  	0.035485 
1323.167776  	0.036005 
1325.096592  	0.036409 
1327.025408  	0.036565 
1328.954224  	0.036309 
1330.883040  	0.035767 
1332.811856  	0.034853 
1334.740672  	0.034253 
1336.669488  	0.033967 
1338.598304  	0.033976 
1340.527120  	0.033235 
1342.455936  	0.032000 
1344.384752  	0.031692 
1346.313568  	0.032052 
1348.242384  	0.032740 
1350.171200  	0.033939 
1352.100016  	0.035365 
1354.028832  	0.036837 
1355.957648  	0.038364 
1357.886464  	0.039850 
1359.815280  	0.041311 
1361.744096  	0.043038 
1363.672912  	0.044055 
1365.601728  	0.043929 
1367.530544  	0.043992 
1369.459360  	0.043783 
1371.388176  	0.042678 
1373.316992  	0.041342 
1375.245808  	0.039380 
1377.174624  	0.037226 
1379.103440  	0.035016 
1381.032256  	0.033024 
1382.961072  	0.031676 
1384.889888  	0.031297 
1386.818704  	0.031500 
1388.747520  	0.030853 
1390.676336  	0.028711 
1392.605152  	0.025363 
1394.533968  	0.024443 
1396.462784  	0.027732 
1398.391600  	0.028783 
1400.320416  	0.028368 
1402.249232  	0.027854 
1404.178048  	0.028337 
1406.106864  	0.029146 
1408.035680  	0.030496 
1409.964496  	0.032539 
1411.893312  	0.035070 
1413.822128  	0.037447 
1415.750944  	0.040147 
1417.679760  	0.041968 
1419.608576  	0.042534 
1421.537392  	0.042378 
1423.466208  	0.042291 
1425.395024  	0.041375 
1427.323840  	0.040010 
1429.252656  	0.038748 
1431.181472  	0.037931 
1433.110288  	0.037544 
1435.039104  	0.037553 
1436.967920  	0.038052 
1438.896736  	0.038385 
1440.825552  	0.038572 
1442.754368  	0.039023 
1444.683184  	0.039081 
1446.612000  	0.039068 
1448.540816  	0.038854 
1450.469632  	0.038848 
1452.398448  	0.039015 
1454.327264  	0.039348 
1456.256080  	0.039931 
1458.184896  	0.040657 
1460.113712  	0.040858 
1462.042528  	0.040983 
1463.971344  	0.041136 
1465.900160  	0.042648 
1467.828976  	0.044447 
1469.757792  	0.046338 
1471.686608  	0.048934 
1473.615424  	0.053391 
1475.544240  	0.056544 
1477.473056  	0.058773 
1479.401872  	0.059697 
1481.330688  	0.060543 
1483.259504  	0.060731 
1485.188320  	0.060369 
1487.117136  	0.059376 
1489.045952  	0.058332 
1490.974768  	0.055825 
1492.903584  	0.052852 
1494.832400  	0.049891 
1496.761216  	0.046690 
1498.690032  	0.043878 
1500.618848  	0.041996 
1502.547664  	0.039939 
1504.476480  	0.037424 
1506.405296  	0.036059 
1508.334112  	0.037144 
1510.262928  	0.036021 
1512.191744  	0.034517 
1514.120560  	0.033547 
1516.049376  	0.033503 
1517.978192  	0.033468 
1519.907008  	0.033685 
1521.835824  	0.035166 
1523.764640  	0.037529 
1525.693456  	0.039948 
1527.622272  	0.041888 
1529.551088  	0.042803 
1531.479904  	0.043051 
1533.408720  	0.042429 
1535.337536  	0.041678 
1537.266352  	0.039516 
1539.195168  	0.035659 
1541.123984  	0.033836 
1543.052800  	0.034790 
1544.981616  	0.034700 
1546.910432  	0.033489 
1548.839248  	0.033014 
1550.768064  	0.033232 
1552.696880  	0.032605 
1554.625696  	0.032833 
1556.554512  	0.032079 
1558.483328  	0.031787 
1560.412144  	0.036289 
1562.340960  	0.038890 
1564.269776  	0.040643 
1566.198592  	0.043788 
1568.127408  	0.046114 
1570.056224  	0.050122 
1571.985040  	0.054021 
1573.913856  	0.055804 
1575.842672  	0.056613 
1577.771488  	0.059044 
1579.700304  	0.059641 
1581.629120  	0.059599 
1583.557936  	0.059736 
1585.486752  	0.060895 
1587.415568  	0.062841 
1589.344384  	0.066094 
1591.273200  	0.069949 
1593.202016  	0.074512 
1595.130832  	0.078990 
1597.059648  	0.083447 
1598.988464  	0.086863 
1600.917280  	0.089809 
1602.846096  	0.091450 
1604.774912  	0.092424 
1606.703728  	0.092170 
1608.632544  	0.091656 
1610.561360  	0.090845 
1612.490176  	0.090431 
1614.418992  	0.089601 
1616.347808  	0.089881 
1618.276624  	0.092608 
1620.205440  	0.095778 
1622.134256  	0.098554 
1624.063072  	0.103952 
1625.991888  	0.109213 
1627.920704  	0.115058 
1629.849520  	0.121722 
1631.778336  	0.127599 
1633.707152  	0.131665 
1635.635968  	0.137518 
1637.564784  	0.144773 
1639.493600  	0.149364 
1641.422416  	0.152717 
1643.351232  	0.155203 
1645.280048  	0.155957 
1647.208864  	0.157428 
1649.137680  	0.158539 
1651.066496  	0.157392 
1652.995312  	0.154610 
1654.924128  	0.156640 
1656.852944  	0.156212 
1658.781760  	0.155019 
1660.710576  	0.153478 
1662.639392  	0.151920 
1664.568208  	0.150858 
1666.497024  	0.149728 
1668.425840  	0.147605 
1670.354656  	0.146219 
1672.283472  	0.145711 
1674.212288  	0.145007 
1676.141104  	0.145042 
1678.069920  	0.145764 
1679.998736  	0.146364 
1681.927552  	0.146018 
1683.856368  	0.144796 
1685.785184  	0.146436 
1687.714000  	0.146644 
1689.642816  	0.145724 
1691.571632  	0.144097 
1693.500448  	0.142252 
1695.429264  	0.139076 
1697.358080  	0.136244 
1699.286896  	0.132772 
1701.215712  	0.129003 
1703.144528  	0.126550 
1705.073344  	0.122384 
1707.002160  	0.117765 
1708.930976  	0.113784 
1710.859792  	0.109124 
1712.788608  	0.103979 
1714.717424  	0.098362 
1716.646240  	0.091816 
1718.575056  	0.085000 
1720.503872  	0.079720 
1722.432688  	0.074789 
1724.361504  	0.068728 
1726.290320  	0.063117 
1728.219136  	0.057957 
1730.147952  	0.053299 
1732.076768  	0.048429 
1734.005584  	0.043222 
1735.934400  	0.038581 
1737.863216  	0.035526 
1739.792032  	0.031289 
1741.720848  	0.028715 
1743.649664  	0.026330 
1745.578480  	0.023618 
1747.507296  	0.021051 
1749.436112  	0.019700 
1751.364928  	0.018495 
1753.293744  	0.017230 
1755.222560  	0.015801 
1757.151376  	0.015277 
1759.080192  	0.014238 
1761.009008  	0.013480 
1762.937824  	0.012799 
1764.866640  	0.012501 
1766.795456  	0.012165 
1768.724272  	0.012048 
1770.653088  	0.010371 
1772.581904  	0.009794 
1774.510720  	0.010460 
1776.439536  	0.010825 
1778.368352  	0.010496 
1780.297168  	0.010456 
1782.225984  	0.010259 
1784.154800  	0.010340 
1786.083616  	0.010162 
1788.012432  	0.009790 
1789.941248  	0.009410 
1791.870064  	0.009216 
1793.798880  	0.009070 
1795.727696  	0.009529 
1797.656512  	0.009009 
1799.585328  	0.008794 
1801.514144  	0.009174 
1803.442960  	0.008936 
1805.371776  	0.008331 
1807.300592  	0.008245 
1809.229408  	0.007841 
1811.158224  	0.008028 
1813.087040  	0.007845 
1815.015856  	0.007493 
1816.944672  	0.007449 
1818.873488  	0.007640 
1820.802304  	0.007632 
1822.731120  	0.007713 
1824.659936  	0.007701 
1826.588752  	0.007890 
1828.517568  	0.007256 
1830.446384  	0.007703 
1832.375200  	0.008028 
1834.304016  	0.007789 
1836.232832  	0.007401 
1838.161648  	0.007817 
1840.090464  	0.007663 
1842.019280  	0.007265 
1843.948096  	0.006980 
1845.876912  	0.007639 
1847.805728  	0.007755 
1849.734544  	0.007692 
1851.663360  	0.007363 
1853.592176  	0.007479 
1855.520992  	0.007352 
1857.449808  	0.007609 
1859.378624  	0.007443 
1861.307440  	0.007324 
1863.236256  	0.007057 
1865.165072  	0.007093 
1867.093888  	0.007135 
1869.022704  	0.007703 
1870.951520  	0.007442 
1872.880336  	0.007324 
1874.809152  	0.007027 
1876.737968  	0.006878 
1878.666784  	0.006662 
1880.595600  	0.006929 
1882.524416  	0.007095 
1884.453232  	0.007108 
1886.382048  	0.006608 
1888.310864  	0.006563 
1890.239680  	0.006749 
1892.168496  	0.007008 
1894.097312  	0.006738 
1896.026128  	0.006874 
1897.954944  	0.006671 
1899.883760  	0.006538 
1901.812576  	0.006474 
1903.741392  	0.006623 
1905.670208  	0.006350 
1907.599024  	0.006388 
1909.527840  	0.006488 
1911.456656  	0.006769 
1913.385472  	0.006619 
1915.314288  	0.006901 
1917.243104  	0.006576 
1919.171920  	0.006375 
1921.100736  	0.006536 
1923.029552  	0.007234 
1924.958368  	0.006333 
1926.887184  	0.006583 
1928.816000  	0.006765 
1930.744816  	0.006144 
1932.673632  	0.005322 
1934.602448  	0.005692 
1936.531264  	0.006044 
1938.460080  	0.006188 
1940.388896  	0.006360 
1942.317712  	0.006768 
1944.246528  	0.006399 
1946.175344  	0.006886 
1948.104160  	0.006081 
1950.032976  	0.005758 
1951.961792  	0.006021 
1953.890608  	0.006487 
1955.819424  	0.006026 
1957.748240  	0.006097 
1959.677056  	0.005614 
1961.605872  	0.005296 
1963.534688  	0.005597 
1965.463504  	0.007442 
1967.392320  	0.006910 
1969.321136  	0.006144 
1971.249952  	0.005985 
1973.178768  	0.007601 
1975.107584  	0.006658 
1977.036400  	0.005702 
1978.965216  	0.007587 
1980.894032  	0.008854 
1982.822848  	0.006818 
1984.751664  	0.006252 
1986.680480  	0.006529 
1988.609296  	0.006708 
1990.538112  	0.006739 
1992.466928  	0.007853 
1994.395744  	0.006890 
1996.324560  	0.006866 
1998.253376  	0.006715 
2000.182192  	0.006296 
2002.111008  	0.005915 
2004.039824  	0.006430 
2005.968640  	0.005824 
2007.897456  	0.007046 
2009.826272  	0.006366 
2011.755088  	0.005258 
2013.683904  	0.005881 
2015.612720  	0.006711 
2017.541536  	0.005834 
2019.470352  	0.005662 
2021.399168  	0.005141 
2023.327984  	0.005548 
2025.256800  	0.005328 
2027.185616  	0.005437 
2029.114432  	0.005700 
2031.043248  	0.007338 
2032.972064  	0.006512 
2034.900880  	0.007355 
2036.829696  	0.008006 
2038.758512  	0.007355 
2040.687328  	0.006607 
2042.616144  	0.006495 
2044.544960  	0.006053 
2046.473776  	0.006821 
2048.402592  	0.006979 
2050.331408  	0.007522 
2052.260224  	0.007111 
2054.189040  	0.006964 
2056.117856  	0.006293 
2058.046672  	0.006226 
2059.975488  	0.006316 
2061.904304  	0.006489 
2063.833120  	0.006978 
2065.761936  	0.007377 
2067.690752  	0.006784 
2069.619568  	0.006420 
2071.548384  	0.005665 
2073.477200  	0.005991 
2075.406016  	0.006922 
2077.334832  	0.007545 
2079.263648  	0.006886 
2081.192464  	0.006386 
2083.121280  	0.006802 
2085.050096  	0.007145 
2086.978912  	0.006466 
2088.907728  	0.006373 
2090.836544  	0.006372 
2092.765360  	0.006363 
2094.694176  	0.006115 
2096.622992  	0.005774 
2098.551808  	0.005669 
2100.480624  	0.006174 
2102.409440  	0.006075 
2104.338256  	0.006340 
2106.267072  	0.006197 
2108.195888  	0.006513 
2110.124704  	0.007050 
2112.053520  	0.007546 
2113.982336  	0.007314 
2115.911152  	0.007451 
2117.839968  	0.006688 
2119.768784  	0.005870 
2121.697600  	0.005701 
2123.626416  	0.005467 
2125.555232  	0.005227 
2127.484048  	0.005710 
2129.412864  	0.005408 
2131.341680  	0.004964 
2133.270496  	0.005501 
2135.199312  	0.005799 
2137.128128  	0.005626 
2139.056944  	0.005803 
2140.985760  	0.004936 
2142.914576  	0.005383 
2144.843392  	0.005386 
2146.772208  	0.005958 
2148.701024  	0.006167 
2150.629840  	0.006378 
2152.558656  	0.004870 
2154.487472  	0.003507 
2156.416288  	0.002728 
2158.345104  	0.005444 
2160.273920  	0.008338 
2162.202736  	0.008244 
2164.131552  	0.008128 
2166.060368  	0.008980 
2167.989184  	0.006673 
2169.918000  	0.005844 
2171.846816  	0.006615 
2173.775632  	0.006909 
2175.704448  	0.007206 
2177.633264  	0.008122 
2179.562080  	0.008391 
2181.490896  	0.007643 
2183.419712  	0.006552 
2185.348528  	0.007474 
2187.277344  	0.007301 
2189.206160  	0.006876 
2191.134976  	0.007774 
2193.063792  	0.008841 
2194.992608  	0.008442 
2196.921424  	0.007521 
2198.850240  	0.007988 
2200.779056  	0.008339 
2202.707872  	0.007714 
2204.636688  	0.007699 
2206.565504  	0.007704 
2208.494320  	0.008118 
2210.423136  	0.007346 
2212.351952  	0.007454 
2214.280768  	0.007552 
2216.209584  	0.007083 
2218.138400  	0.006752 
2220.067216  	0.007028 
2221.996032  	0.007112 
2223.924848  	0.006677 
2225.853664  	0.006608 
2227.782480  	0.007275 
2229.711296  	0.007693 
2231.640112  	0.007267 
2233.568928  	0.006822 
2235.497744  	0.007141 
2237.426560  	0.006669 
2239.355376  	0.006521 
2241.284192  	0.006451 
2243.213008  	0.006592 
2245.141824  	0.006506 
2247.070640  	0.006073 
2248.999456  	0.006078 
2250.928272  	0.006534 
2252.857088  	0.006318 
2254.785904  	0.006244 
2256.714720  	0.006530 
2258.643536  	0.006883 
2260.572352  	0.006745 
2262.501168  	0.006978 
2264.429984  	0.007227 
2266.358800  	0.007707 
2268.287616  	0.007611 
2270.216432  	0.007291 
2272.145248  	0.006963 
2274.074064  	0.007189 
2276.002880  	0.007325 
2277.931696  	0.007972 
2279.860512  	0.008496 
2281.789328  	0.008651 
2283.718144  	0.008476 
2285.646960  	0.008529 
2287.575776  	0.008601 
2289.504592  	0.008365 
2291.433408  	0.008133 
2293.362224  	0.008140 
2295.291040  	0.008203 
2297.219856  	0.008553 
2299.148672  	0.008552 
2301.077488  	0.008387 
2303.006304  	0.008442 
2304.935120  	0.008656 
2306.863936  	0.008577 
2308.792752  	0.008493 
2310.721568  	0.008501 
2312.650384  	0.008255 
2314.579200  	0.007491 
2316.508016  	0.006937 
2318.436832  	0.006396 
2320.365648  	0.005895 
2322.294464  	0.005242 
2324.223280  	0.004103 
2326.152096  	0.002425 
2328.080912  	0.001266 
2330.009728  	0.000227 
2331.938544  	-0.000603 
2333.867360  	-0.001901 
2335.796176  	-0.002856 
2337.724992  	-0.003100 
2339.653808  	-0.002981 
2341.582624  	-0.003032 
2343.511440  	-0.002004 
2345.440256  	0.000169 
2347.369072  	0.002945 
2349.297888  	0.003354 
2351.226704  	0.001076 
2353.155520  	-0.001528 
2355.084336  	-0.003771 
2357.013152  	-0.005948 
2358.941968  	-0.006984 
2360.870784  	-0.007770 
2362.799600  	-0.007310 
2364.728416  	-0.006100 
2366.657232  	-0.004208 
2368.586048  	-0.002115 
2370.514864  	0.000209 
2372.443680  	0.002257 
2374.372496  	0.004268 
2376.301312  	0.005946 
2378.230128  	0.007191 
2380.158944  	0.007737 
2382.087760  	0.008011 
2384.016576  	0.008165 
2385.945392  	0.008259 
2387.874208  	0.007928 
2389.803024  	0.007582 
2391.731840  	0.007468 
2393.660656  	0.007555 
2395.589472  	0.007727 
2397.518288  	0.007838 
2399.447104  	0.007739 
2401.375920  	0.007504 
2403.304736  	0.007451 
2405.233552  	0.007611 
2407.162368  	0.007873 
2409.091184  	0.007817 
2411.020000  	0.007640 
2412.948816  	0.007785 
2414.877632  	0.007697 
2416.806448  	0.007745 
2418.735264  	0.008024 
2420.664080  	0.008031 
2422.592896  	0.007775 
2424.521712  	0.007882 
2426.450528  	0.007999 
2428.379344  	0.007940 
2430.308160  	0.007965 
2432.236976  	0.008087 
2434.165792  	0.008252 
2436.094608  	0.008604 
2438.023424  	0.008857 
2439.952240  	0.008838 
2441.881056  	0.008821 
2443.809872  	0.008678 
2445.738688  	0.008439 
2447.667504  	0.008630 
2449.596320  	0.008878 
2451.525136  	0.008853 
2453.453952  	0.008881 
2455.382768  	0.009189 
2457.311584  	0.009347 
2459.240400  	0.009219 
2461.169216  	0.009081 
2463.098032  	0.009207 
2465.026848  	0.009124 
2466.955664  	0.008971 
2468.884480  	0.008889 
2470.813296  	0.008840 
2472.742112  	0.008958 
2474.670928  	0.009145 
2476.599744  	0.009126 
2478.528560  	0.009076 
2480.457376  	0.009309 
2482.386192  	0.009439 
2484.315008  	0.009266 
2486.243824  	0.009336 
2488.172640  	0.009416 
2490.101456  	0.009432 
2492.030272  	0.009554 
2493.959088  	0.009544 
2495.887904  	0.009216 
2497.816720  	0.009259 
2499.745536  	0.009473 
2501.674352  	0.009641 
2503.603168  	0.009653 
2505.531984  	0.009784 
2507.460800  	0.009778 
2509.389616  	0.009663 
2511.318432  	0.009623 
2513.247248  	0.009674 
2515.176064  	0.009880 
2517.104880  	0.010425 
2519.033696  	0.010470 
2520.962512  	0.010288 
2522.891328  	0.010501 
2524.820144  	0.010605 
2526.748960  	0.010389 
2528.677776  	0.010312 
2530.606592  	0.010438 
2532.535408  	0.010573 
2534.464224  	0.010796 
2536.393040  	0.010828 
2538.321856  	0.010554 
2540.250672  	0.010602 
2542.179488  	0.010858 
2544.108304  	0.010972 
2546.037120  	0.010840 
2547.965936  	0.011136 
2549.894752  	0.011315 
2551.823568  	0.011203 
2553.752384  	0.011170 
2555.681200  	0.011300 
2557.610016  	0.011517 
2559.538832  	0.011715 
2561.467648  	0.011763 
2563.396464  	0.011848 
2565.325280  	0.012046 
2567.254096  	0.012126 
2569.182912  	0.011887 
2571.111728  	0.011810 
2573.040544  	0.011628 
2574.969360  	0.011640 
2576.898176  	0.011975 
2578.826992  	0.012239 
2580.755808  	0.012221 
2582.684624  	0.012155 
2584.613440  	0.012078 
2586.542256  	0.012332 
2588.471072  	0.012625 
2590.399888  	0.012490 
2592.328704  	0.012413 
2594.257520  	0.012571 
2596.186336  	0.012826 
2598.115152  	0.012871 
2600.043968  	0.012720 
2601.972784  	0.012915 
2603.901600  	0.013080 
2605.830416  	0.013107 
2607.759232  	0.012946 
2609.688048  	0.013129 
2611.616864  	0.013384 
2613.545680  	0.013407 
2615.474496  	0.013290 
2617.403312  	0.013378 
2619.332128  	0.013601 
2621.260944  	0.013768 
2623.189760  	0.013799 
2625.118576  	0.014033 
2627.047392  	0.014114 
2628.976208  	0.014197 
2630.905024  	0.014390 
2632.833840  	0.014635 
2634.762656  	0.014643 
2636.691472  	0.014523 
2638.620288  	0.014480 
2640.549104  	0.014719 
2642.477920  	0.014878 
2644.406736  	0.014868 
2646.335552  	0.015032 
2648.264368  	0.015220 
2650.193184  	0.015243 
2652.122000  	0.015374 
2654.050816  	0.015512 
2655.979632  	0.015494 
2657.908448  	0.015478 
2659.837264  	0.015499 
2661.766080  	0.015498 
2663.694896  	0.015626 
2665.623712  	0.015641 
2667.552528  	0.015659 
2669.481344  	0.015789 
2671.410160  	0.015968 
2673.338976  	0.016083 
2675.267792  	0.016155 
2677.196608  	0.016247 
2679.125424  	0.016411 
2681.054240  	0.016419 
2682.983056  	0.016412 
2684.911872  	0.016588 
2686.840688  	0.016710 
2688.769504  	0.016838 
2690.698320  	0.016939 
2692.627136  	0.017018 
2694.555952  	0.017068 
2696.484768  	0.016981 
2698.413584  	0.017012 
2700.342400  	0.017141 
2702.271216  	0.017328 
2704.200032  	0.017531 
2706.128848  	0.017610 
2708.057664  	0.017700 
2709.986480  	0.017687 
2711.915296  	0.017630 
2713.844112  	0.017752 
2715.772928  	0.017932 
2717.701744  	0.018020 
2719.630560  	0.018033 
2721.559376  	0.018165 
2723.488192  	0.018351 
2725.417008  	0.018567 
2727.345824  	0.018629 
2729.274640  	0.018517 
2731.203456  	0.018533 
2733.132272  	0.018630 
2735.061088  	0.018743 
2736.989904  	0.018862 
2738.918720  	0.018830 
2740.847536  	0.018770 
2742.776352  	0.018878 
2744.705168  	0.018987 
2746.633984  	0.018966 
2748.562800  	0.019149 
2750.491616  	0.019330 
2752.420432  	0.019390 
2754.349248  	0.019398 
2756.278064  	0.019388 
2758.206880  	0.019301 
2760.135696  	0.019433 
2762.064512  	0.019511 
2763.993328  	0.019470 
2765.922144  	0.019466 
2767.850960  	0.019475 
2769.779776  	0.019440 
2771.708592  	0.019457 
2773.637408  	0.019400 
2775.566224  	0.019461 
2777.495040  	0.019561 
2779.423856  	0.019542 
2781.352672  	0.019608 
2783.281488  	0.019739 
2785.210304  	0.019765 
2787.139120  	0.019842 
2789.067936  	0.019917 
2790.996752  	0.019977 
2792.925568  	0.020065 
2794.854384  	0.020118 
2796.783200  	0.020125 
2798.712016  	0.020082 
2800.640832  	0.020141 
2802.569648  	0.020255 
2804.498464  	0.020248 
2806.427280  	0.020315 
2808.356096  	0.020405 
2810.284912  	0.020454 
2812.213728  	0.020436 
2814.142544  	0.020441 
2816.071360  	0.020521 
2818.000176  	0.020385 
2819.928992  	0.020159 
2821.857808  	0.020081 
2823.786624  	0.019984 
2825.715440  	0.019856 
2827.644256  	0.019807 
2829.573072  	0.019833 
2831.501888  	0.019535 
2833.430704  	0.019256 
2835.359520  	0.019095 
2837.288336  	0.018785 
2839.217152  	0.018530 
2841.145968  	0.018312 
2843.074784  	0.018071 
2845.003600  	0.017939 
2846.932416  	0.017826 
2848.861232  	0.017687 
2850.790048  	0.017390 
2852.718864  	0.016819 
2854.647680  	0.016135 
2856.576496  	0.015538 
2858.505312  	0.014874 
2860.434128  	0.014123 
2862.362944  	0.013273 
2864.291760  	0.012439 
2866.220576  	0.011683 
2868.149392  	0.011350 
2870.078208  	0.011269 
2872.007024  	0.011221 
2873.935840  	0.011150 
2875.864656  	0.011049 
2877.793472  	0.010908 
2879.722288  	0.010665 
2881.651104  	0.010188 
2883.579920  	0.009682 
2885.508736  	0.009587 
2887.437552  	0.009960 
2889.366368  	0.010059 
2891.295184  	0.009732 
2893.224000  	0.009506 
2895.152816  	0.009612 
2897.081632  	0.009133 
2899.010448  	0.007478 
2900.939264  	0.006248 
2902.868080  	0.007511 
2904.796896  	0.008912 
2906.725712  	0.009445 
2908.654528  	0.009862 
2910.583344  	0.010213 
2912.512160  	0.011222 
2914.440976  	0.012680 
2916.369792  	0.013639 
2918.298608  	0.014171 
2920.227424  	0.014608 
2922.156240  	0.015136 
2924.085056  	0.015693 
2926.013872  	0.016400 
2927.942688  	0.017175 
2929.871504  	0.017864 
2931.800320  	0.018534 
2933.729136  	0.019022 
2935.657952  	0.019188 
2937.586768  	0.019513 
2939.515584  	0.019654 
2941.444400  	0.019553 
2943.373216  	0.019600 
2945.302032  	0.019744 
2947.230848  	0.019756 
2949.159664  	0.019323 
2951.088480  	0.018610 
2953.017296  	0.018147 
2954.946112  	0.017435 
2956.874928  	0.016594 
2958.803744  	0.015867 
2960.732560  	0.015245 
2962.661376  	0.014626 
2964.590192  	0.013630 
2966.519008  	0.012451 
2968.447824  	0.011158 
2970.376640  	0.010258 
2972.305456  	0.009805 
2974.234272  	0.009990 
2976.163088  	0.010084 
2978.091904  	0.010037 
2980.020720  	0.009978 
2981.949536  	0.009984 
2983.878352  	0.009499 
2985.807168  	0.008411 
2987.735984  	0.007719 
2989.664800  	0.008338 
2991.593616  	0.011361 
2993.522432  	0.012965 
2995.451248  	0.013409 
2997.380064  	0.014360 
2999.308880  	0.015530 
3001.237696  	0.016837 
3003.166512  	0.018025 
3005.095328  	0.019292 
3007.024144  	0.020660 
3008.952960  	0.022038 
3010.881776  	0.023363 
3012.810592  	0.024598 
3014.739408  	0.025678 
3016.668224  	0.026935 
3018.597040  	0.027965 
3020.525856  	0.028756 
3022.454672  	0.029706 
3024.383488  	0.030859 
3026.312304  	0.031843 
3028.241120  	0.032580 
3030.169936  	0.033116 
3032.098752  	0.033889 
3034.027568  	0.034369 
3035.956384  	0.034778 
3037.885200  	0.035435 
3039.814016  	0.036017 
3041.742832  	0.036635 
3043.671648  	0.037129 
3045.600464  	0.037426 
3047.529280  	0.037665 
3049.458096  	0.037943 
3051.386912  	0.038174 
3053.315728  	0.038462 
3055.244544  	0.038957 
3057.173360  	0.039509 
3059.102176  	0.039815 
3061.030992  	0.040171 
3062.959808  	0.040535 
3064.888624  	0.040921 
3066.817440  	0.041356 
3068.746256  	0.041665 
3070.675072  	0.041832 
3072.603888  	0.042253 
3074.532704  	0.042800 
3076.461520  	0.043284 
3078.390336  	0.043493 
3080.319152  	0.043806 
3082.247968  	0.044237 
3084.176784  	0.044593 
3086.105600  	0.044896 
3088.034416  	0.045240 
3089.963232  	0.045748 
3091.892048  	0.046133 
3093.820864  	0.046307 
3095.749680  	0.046635 
3097.678496  	0.046933 
3099.607312  	0.047289 
3101.536128  	0.047591 
3103.464944  	0.048021 
3105.393760  	0.048477 
3107.322576  	0.048805 
3109.251392  	0.049107 
3111.180208  	0.049345 
3113.109024  	0.049523 
3115.037840  	0.049835 
3116.966656  	0.050298 
3118.895472  	0.050535 
3120.824288  	0.050642 
3122.753104  	0.050985 
3124.681920  	0.051166 
3126.610736  	0.051221 
3128.539552  	0.051480 
3130.468368  	0.051647 
3132.397184  	0.051863 
3134.326000  	0.052112 
3136.254816  	0.052332 
3138.183632  	0.052614 
3140.112448  	0.052936 
3142.041264  	0.053191 
3143.970080  	0.053409 
3145.898896  	0.053601 
3147.827712  	0.053817 
3149.756528  	0.054184 
3151.685344  	0.054532 
3153.614160  	0.054922 
3155.542976  	0.055175 
3157.471792  	0.055363 
3159.400608  	0.055772 
3161.329424  	0.056160 
3163.258240  	0.056546 
3165.187056  	0.056735 
3167.115872  	0.056776 
3169.044688  	0.056961 
3170.973504  	0.057148 
3172.902320  	0.057215 
3174.831136  	0.057396 
3176.759952  	0.057672 
3178.688768  	0.057991 
3180.617584  	0.058103 
3182.546400  	0.058042 
3184.475216  	0.058358 
3186.404032  	0.058454 
3188.332848  	0.058372 
3190.261664  	0.058632 
3192.190480  	0.058789 
3194.119296  	0.058650 
3196.048112  	0.058547 
3197.976928  	0.058819 
3199.905744  	0.058900 
3201.834560  	0.058851 
3203.763376  	0.058896 
3205.692192  	0.058888 
3207.621008  	0.058687 
3209.549824  	0.058526 
3211.478640  	0.058427 
3213.407456  	0.058271 
3215.336272  	0.058290 
3217.265088  	0.058278 
3219.193904  	0.057950 
3221.122720  	0.057675 
3223.051536  	0.057529 
3224.980352  	0.057387 
3226.909168  	0.057210 
3228.837984  	0.056996 
3230.766800  	0.056931 
3232.695616  	0.057001 
3234.624432  	0.056965 
3236.553248  	0.056869 
3238.482064  	0.056820 
3240.410880  	0.056822 
3242.339696  	0.056718 
3244.268512  	0.056689 
3246.197328  	0.056782 
3248.126144  	0.056699 
3250.054960  	0.056635 
3251.983776  	0.056556 
3253.912592  	0.056591 
3255.841408  	0.056806 
3257.770224  	0.056839 
3259.699040  	0.056990 
3261.627856  	0.057290 
3263.556672  	0.057408 
3265.485488  	0.057330 
3267.414304  	0.057417 
3269.343120  	0.057592 
3271.271936  	0.057916 
3273.200752  	0.058134 
3275.129568  	0.058244 
3277.058384  	0.058257 
3278.987200  	0.058363 
3280.916016  	0.058539 
3282.844832  	0.058625 
3284.773648  	0.058642 
3286.702464  	0.058715 
3288.631280  	0.058954 
3290.560096  	0.059138 
3292.488912  	0.059369 
3294.417728  	0.059479 
3296.346544  	0.059624 
3298.275360  	0.059882 
3300.204176  	0.060154 
3302.132992  	0.060316 
3304.061808  	0.060574 
3305.990624  	0.060841 
3307.919440  	0.060926 
3309.848256  	0.061065 
3311.777072  	0.061113 
3313.705888  	0.061359 
3315.634704  	0.061795 
3317.563520  	0.062063 
3319.492336  	0.062163 
3321.421152  	0.062229 
3323.349968  	0.062365 
3325.278784  	0.062633 
3327.207600  	0.062887 
3329.136416  	0.062842 
3331.065232  	0.062607 
3332.994048  	0.062783 
3334.922864  	0.062927 
3336.851680  	0.062837 
3338.780496  	0.062865 
3340.709312  	0.062705 
3342.638128  	0.062511 
3344.566944  	0.062468 
3346.495760  	0.062313 
3348.424576  	0.062117 
3350.353392  	0.061909 
3352.282208  	0.061662 
3354.211024  	0.061669 
3356.139840  	0.061719 
3358.068656  	0.061406 
3359.997472  	0.061170 
3361.926288  	0.060973 
3363.855104  	0.060568 
3365.783920  	0.060225 
3367.712736  	0.060001 
3369.641552  	0.059721 
3371.570368  	0.059342 
3373.499184  	0.059091 
3375.428000  	0.058712 
3377.356816  	0.058443 
3379.285632  	0.058317 
3381.214448  	0.058156 
3383.143264  	0.057849 
3385.072080  	0.057613 
3387.000896  	0.057380 
3388.929712  	0.057101 
3390.858528  	0.056698 
3392.787344  	0.056475 
3394.716160  	0.056066 
3396.644976  	0.055676 
3398.573792  	0.055361 
3400.502608  	0.054864 
3402.431424  	0.054547 
3404.360240  	0.054354 
3406.289056  	0.053944 
3408.217872  	0.053576 
3410.146688  	0.053247 
3412.075504  	0.053186 
3414.004320  	0.053047 
3415.933136  	0.052558 
3417.861952  	0.052258 
3419.790768  	0.052167 
3421.719584  	0.051965 
3423.648400  	0.051402 
3425.577216  	0.050954 
3427.506032  	0.050743 
3429.434848  	0.050249 
3431.363664  	0.049901 
3433.292480  	0.049630 
3435.221296  	0.049454 
3437.150112  	0.049289 
3439.078928  	0.048961 
3441.007744  	0.048572 
3442.936560  	0.048225 
3444.865376  	0.047647 
3446.794192  	0.047144 
3448.723008  	0.046977 
3450.651824  	0.046383 
3452.580640  	0.045729 
3454.509456  	0.045382 
3456.438272  	0.045022 
3458.367088  	0.044678 
3460.295904  	0.044363 
3462.224720  	0.043810 
3464.153536  	0.043288 
3466.082352  	0.043138 
3468.011168  	0.042834 
3469.939984  	0.042257 
3471.868800  	0.041598 
3473.797616  	0.041109 
3475.726432  	0.040638 
3477.655248  	0.040051 
3479.584064  	0.039729 
3481.512880  	0.039531 
3483.441696  	0.038918 
3485.370512  	0.038110 
3487.299328  	0.037773 
3489.228144  	0.037446 
3491.156960  	0.036712 
3493.085776  	0.036286 
3495.014592  	0.035981 
3496.943408  	0.035736 
3498.872224  	0.035251 
3500.801040  	0.034927 
3502.729856  	0.034606 
3504.658672  	0.033997 
3506.587488  	0.033231 
3508.516304  	0.032896 
3510.445120  	0.032828 
3512.373936  	0.032490 
3514.302752  	0.032063 
3516.231568  	0.031610 
3518.160384  	0.031192 
3520.089200  	0.031005 
3522.018016  	0.030832 
3523.946832  	0.030827 
3525.875648  	0.030462 
3527.804464  	0.029771 
3529.733280  	0.029443 
3531.662096  	0.029003 
3533.590912  	0.028410 
3535.519728  	0.028218 
3537.448544  	0.028060 
3539.377360  	0.027539 
3541.306176  	0.026958 
3543.234992  	0.026716 
3545.163808  	0.027296 
3547.092624  	0.027076 
3549.021440  	0.025696 
3550.950256  	0.025080 
3552.879072  	0.025464 
3554.807888  	0.025121 
3556.736704  	0.024348 
3558.665520  	0.024048 
3560.594336  	0.023969 
3562.523152  	0.023465 
3564.451968  	0.022932 
3566.380784  	0.023553 
3568.309600  	0.023738 
3570.238416  	0.022304 
3572.167232  	0.021170 
3574.096048  	0.020757 
3576.024864  	0.020366 
3577.953680  	0.019985 
3579.882496  	0.019660 
3581.811312  	0.019229 
3583.740128  	0.018710 
3585.668944  	0.018437 
3587.597760  	0.019202 
3589.526576  	0.018740 
3591.455392  	0.017068 
3593.384208  	0.016725 
3595.313024  	0.016531 
3597.241840  	0.015803 
3599.170656  	0.014768 
3601.099472  	0.014261 
3603.028288  	0.014119 
3604.957104  	0.013428 
3606.885920  	0.012821 
3608.814736  	0.013176 
3610.743552  	0.012522 
3612.672368  	0.011633 
3614.601184  	0.011359 
3616.530000  	0.010085 
3618.458816  	0.009456 
3620.387632  	0.009740 
3622.316448  	0.008908 
3624.245264  	0.007783 
3626.174080  	0.006491 
3628.102896  	0.005773 
3630.031712  	0.007173 
3631.960528  	0.006320 
3633.889344  	0.005092 
3635.818160  	0.004294 
3637.746976  	0.003588 
3639.675792  	0.003306 
3641.604608  	0.002871 
3643.533424  	0.001911 
3645.462240  	0.000203 
3647.391056  	-0.000932 
3649.319872  	-0.001082 
3651.248688  	-0.000193 
3653.177504  	-0.001061 
3655.106320  	-0.002924 
3657.035136  	-0.003030 
3658.963952  	-0.003505 
3660.892768  	-0.004554 
3662.821584  	-0.005060 
3664.750400  	-0.005167 
3666.679216  	-0.005994 
3668.608032  	-0.007303 
3670.536848  	-0.006638 
3672.465664  	-0.006568 
3674.394480  	-0.008850 
3676.323296  	-0.007418 
3678.252112  	-0.005490 
3680.180928  	-0.005067 
3682.109744  	-0.005566 
3684.038560  	-0.006338 
3685.967376  	-0.007287 
3687.896192  	-0.008336 
3689.825008  	-0.007244 
3691.753824  	-0.005739 
3693.682640  	-0.005302 
3695.611456  	-0.005435 
3697.540272  	-0.005070 
3699.469088  	-0.004924 
3701.397904  	-0.004106 
3703.326720  	-0.003137 
3705.255536  	-0.003266 
3707.184352  	-0.003900 
3709.113168  	-0.004372 
3711.041984  	-0.003829 
3712.970800  	-0.002129 
3714.899616  	-0.001624 
3716.828432  	-0.002146 
3718.757248  	-0.002520 
3720.686064  	-0.002861 
3722.614880  	-0.002323 
3724.543696  	-0.001740 
3726.472512  	-0.001461 
3728.401328  	-0.002035 
3730.330144  	-0.003856 
3732.258960  	-0.004447 
3734.187776  	-0.002671 
3736.116592  	-0.000600 
3738.045408  	-0.001115 
3739.974224  	-0.002022 
3741.903040  	-0.002845 
3743.831856  	-0.002857 
3745.760672  	-0.000864 
3747.689488  	-0.002848 
3749.618304  	-0.004387 
3751.547120  	-0.003040 
3753.475936  	-0.000967 
3755.404752  	-0.001538 
3757.333568  	-0.002401 
3759.262384  	-0.002157 
3761.191200  	-0.001366 
3763.120016  	-0.001690 
3765.048832  	-0.001826 
3766.977648  	-0.001725 
3768.906464  	-0.002262 
3770.835280  	-0.001447 
3772.764096  	-0.001179 
3774.692912  	-0.001545 
3776.621728  	-0.002180 
3778.550544  	-0.002642 
3780.479360  	-0.001858 
3782.408176  	-0.001877 
3784.336992  	-0.002220 
3786.265808  	-0.001896 
3788.194624  	-0.001709 
3790.123440  	-0.001761 
3792.052256  	-0.001919 
3793.981072  	-0.002420 
3795.909888  	-0.002574 
3797.838704  	-0.002174 
3799.767520  	-0.003597 
3801.696336  	-0.003312 
3803.625152  	-0.002101 
3805.553968  	-0.003171 
3807.482784  	-0.002448 
3809.411600  	-0.001625 
3811.340416  	-0.001764 
3813.269232  	-0.002593 
3815.198048  	-0.003585 
3817.126864  	-0.002627 
3819.055680  	-0.003568 
3820.984496  	-0.003578 
3822.913312  	-0.001445 
3824.842128  	-0.001955 
3826.770944  	-0.002139 
3828.699760  	-0.002129 
3830.628576  	-0.002895 
3832.557392  	-0.002797 
3834.486208  	-0.003067 
3836.415024  	-0.003761 
3838.343840  	-0.003056 
3840.272656  	-0.002129 
3842.201472  	-0.002247 
3844.130288  	-0.002095 
3846.059104  	-0.001848 
3847.987920  	-0.002327 
3849.916736  	-0.003230 
3851.845552  	-0.004735 
3853.774368  	-0.002705 
3855.703184  	-0.000797 
3857.632000  	-0.001506 
3859.560816  	-0.002267 
3861.489632  	-0.002530 
3863.418448  	-0.002460 
3865.347264  	-0.001932 
3867.276080  	-0.002488 
3869.204896  	-0.002812 
3871.133712  	-0.001082 
3873.062528  	-0.001787 
3874.991344  	-0.001655 
3876.920160  	-0.001937 
3878.848976  	-0.002476 
3880.777792  	-0.001402 
3882.706608  	-0.001307 
3884.635424  	-0.002116 
3886.564240  	-0.001146 
3888.493056  	-0.001779 
3890.421872  	-0.002228 
3892.350688  	-0.001276 
3894.279504  	-0.001295 
3896.208320  	-0.001915 
3898.137136  	-0.002073 
3900.065952  	-0.001475 
3901.994768  	-0.001314 
3903.923584  	-0.001073 
3905.852400  	-0.000648 
3907.781216  	-0.001309 
3909.710032  	-0.001912 
3911.638848  	-0.001904 
3913.567664  	-0.001910 
3915.496480  	-0.001628 
3917.425296  	-0.000734 
3919.354112  	-0.000686 
3921.282928  	-0.000964 
3923.211744  	-0.001119 
3925.140560  	-0.000919 
3927.069376  	-0.001425 
3928.998192  	-0.001783 
3930.927008  	-0.001224 
3932.855824  	-0.000487 
3934.784640  	-0.000973 
3936.713456  	-0.001360 
3938.642272  	-0.001309 
3940.571088  	-0.001589 
3942.499904  	-0.001086 
3944.428720  	-0.000892 
3946.357536  	-0.001234 
3948.286352  	-0.001007 
3950.215168  	-0.001164 
3952.143984  	-0.001540 
3954.072800  	-0.001699 
3956.001616  	-0.001691 
3957.930432  	-0.001518 
3959.859248  	-0.001267 
3961.788064  	-0.001132 
3963.716880  	-0.001365 
3965.645696  	-0.001680 
3967.574512  	-0.001432 
3969.503328  	-0.001224 
3971.432144  	-0.001409 
3973.360960  	-0.001496 
3975.289776  	-0.001260 
3977.218592  	-0.001299 
3979.147408  	-0.001392 
3981.076224  	-0.001427 
3983.005040  	-0.001536 
3984.933856  	-0.001666 
3986.862672  	-0.001552 
3988.791488  	-0.001361 
3990.720304  	-0.001291 
3992.649120  	-0.001347 
3994.577936  	-0.001521 
3996.506752  	-0.001715 
3998.435568  	-0.001666 
4000.364384  	-0.001503 