##TITLE=No Description
##DATA TYPE=INFRARED SPECTRUM
##XUNITS=1/CM
##YUNITS=Abs
399.264912  	0.589642 
401.193728  	0.586812 
403.122544  	0.589160 
405.051360  	0.574991 
406.980176  	0.565209 
408.908992  	0.562028 
410.837808  	0.567107 
412.766624  	0.564219 
414.695440  	0.567470 
416.624256  	0.566700 
418.553072  	0.565577 
420.481888  	0.559872 
422.410704  	0.556648 
424.339520  	0.547756 
426.268336  	0.547410 
428.197152  	0.537199 
430.125968  	0.536652 
432.054784  	0.530837 
433.983600  	0.531479 
435.912416  	0.524889 
437.841232  	0.518544 
439.770048  	0.514885 
441.698864  	0.518415 
443.627680  	0.514143 
445.556496  	0.507303 
447.485312  	0.507636 
449.414128  	0.512801 
451.342944  	0.507358 
453.271760  	0.509165 
455.200576  	0.510892 
457.129392  	0.507536 
459.058208  	0.503287 
460.987024  	0.510218 
462.915840  	0.509248 
464.844656  	0.508901 
466.773472  	0.509930 
468.702288  	0.512710 
470.631104  	0.510319 
472.559920  	0.511466 
474.488736  	0.506384 
476.417552  	0.507137 
478.346368  	0.506191 
480.275184  	0.506822 
482.204000  	0.503126 
484.132816  	0.503111 
486.061632  	0.501076 
487.990448  	0.504661 
489.919264  	0.505641 
491.848080  	0.499600 
493.776896  	0.492070 
495.705712  	0.493519 
497.634528  	0.493146 
499.563344  	0.492787 
501.492160  	0.490598 
503.420976  	0.490891 
505.349792  	0.488635 
507.278608  	0.489115 
509.207424  	0.491111 
511.136240  	0.495337 
513.065056  	0.493944 
514.993872  	0.493761 
516.922688  	0.496158 
518.851504  	0.497814 
520.780320  	0.495722 
522.709136  	0.494987 
524.637952  	0.492829 
526.566768  	0.490573 
528.495584  	0.488194 
530.424400  	0.486138 
532.353216  	0.480765 
534.282032  	0.478285 
536.210848  	0.474567 
538.139664  	0.470556 
540.068480  	0.465903 
541.997296  	0.461649 
543.926112  	0.457835 
545.854928  	0.455666 
547.783744  	0.452593 
549.712560  	0.449093 
551.641376  	0.444294 
553.570192  	0.440662 
555.499008  	0.435695 
557.427824  	0.432570 
559.356640  	0.429391 
561.285456  	0.425611 
563.214272  	0.421572 
565.143088  	0.418874 
567.071904  	0.415694 
569.000720  	0.412720 
570.929536  	0.408605 
572.858352  	0.405599 
574.787168  	0.402957 
576.715984  	0.398803 
578.644800  	0.394416 
580.573616  	0.391097 
582.502432  	0.386360 
584.431248  	0.383050 
586.360064  	0.381257 
588.288880  	0.379670 
590.217696  	0.377132 
592.146512  	0.374977 
594.075328  	0.372613 
596.004144  	0.370465 
597.932960  	0.368961 
599.861776  	0.368710 
601.790592  	0.367922 
603.719408  	0.366349 
605.648224  	0.364751 
607.577040  	0.363939 
609.505856  	0.362251 
611.434672  	0.361087 
613.363488  	0.359504 
615.292304  	0.358367 
617.221120  	0.356059 
619.149936  	0.354162 
621.078752  	0.351966 
623.007568  	0.350221 
624.936384  	0.348928 
626.865200  	0.347520 
628.794016  	0.345957 
630.722832  	0.345219 
632.651648  	0.344288 
634.580464  	0.343772 
636.509280  	0.344310 
638.438096  	0.344586 
640.366912  	0.343480 
642.295728  	0.342265 
644.224544  	0.339819 
646.153360  	0.336637 
648.082176  	0.332749 
650.010992  	0.329468 
651.939808  	0.325631 
653.868624  	0.322431 
655.797440  	0.319082 
657.726256  	0.315012 
659.655072  	0.310625 
661.583888  	0.307122 
663.512704  	0.303848 
665.441520  	0.300703 
667.370336  	0.295603 
669.299152  	0.291881 
671.227968  	0.291522 
673.156784  	0.288998 
675.085600  	0.286389 
677.014416  	0.284586 
678.943232  	0.282893 
680.872048  	0.280854 
682.800864  	0.279231 
684.729680  	0.278098 
686.658496  	0.276479 
688.587312  	0.274772 
690.516128  	0.272684 
692.444944  	0.271478 
694.373760  	0.270131 
696.302576  	0.268572 
698.231392  	0.266337 
700.160208  	0.263750 
702.089024  	0.261223 
704.017840  	0.259520 
705.946656  	0.257108 
707.875472  	0.254328 
709.804288  	0.252006 
711.733104  	0.250769 
713.661920  	0.249918 
715.590736  	0.249084 
717.519552  	0.248344 
719.448368  	0.248700 
721.377184  	0.250091 
723.306000  	0.251057 
725.234816  	0.250636 
727.163632  	0.249288 
729.092448  	0.246888 
731.021264  	0.244577 
732.950080  	0.241595 
734.878896  	0.238557 
736.807712  	0.236085 
738.736528  	0.234013 
740.665344  	0.232659 
742.594160  	0.231536 
744.522976  	0.230054 
746.451792  	0.229067 
748.380608  	0.228102 
750.309424  	0.227403 
752.238240  	0.226662 
754.167056  	0.226099 
756.095872  	0.225477 
758.024688  	0.224574 
759.953504  	0.223995 
761.882320  	0.224152 
763.811136  	0.224415 
765.739952  	0.223979 
767.668768  	0.222720 
769.597584  	0.221410 
771.526400  	0.221476 
773.455216  	0.223429 
775.384032  	0.226341 
777.312848  	0.230213 
779.241664  	0.233953 
781.170480  	0.234851 
783.099296  	0.231918 
785.028112  	0.227046 
786.956928  	0.221370 
788.885744  	0.216175 
790.814560  	0.212083 
792.743376  	0.209618 
794.672192  	0.208107 
796.601008  	0.207054 
798.529824  	0.205442 
800.458640  	0.202114 
802.387456  	0.198718 
804.316272  	0.197412 
806.245088  	0.196936 
808.173904  	0.196763 
810.102720  	0.196733 
812.031536  	0.196484 
813.960352  	0.196306 
815.889168  	0.196477 
817.817984  	0.196644 
819.746800  	0.196399 
821.675616  	0.196002 
823.604432  	0.195799 
825.533248  	0.194910 
827.462064  	0.193531 
829.390880  	0.192546 
831.319696  	0.191303 
833.248512  	0.189466 
835.177328  	0.187784 
837.106144  	0.185566 
839.034960  	0.182585 
840.963776  	0.179633 
842.892592  	0.176922 
844.821408  	0.173986 
846.750224  	0.171197 
848.679040  	0.168848 
850.607856  	0.166664 
852.536672  	0.164855 
854.465488  	0.163293 
856.394304  	0.161605 
858.323120  	0.159922 
860.251936  	0.158148 
862.180752  	0.156166 
864.109568  	0.153984 
866.038384  	0.152119 
867.967200  	0.150685 
869.896016  	0.149270 
871.824832  	0.147915 
873.753648  	0.147119 
875.682464  	0.147221 
877.611280  	0.147426 
879.540096  	0.147687 
881.468912  	0.148703 
883.397728  	0.149356 
885.326544  	0.149437 
887.255360  	0.149108 
889.184176  	0.148095 
891.112992  	0.146592 
893.041808  	0.145021 
894.970624  	0.143101 
896.899440  	0.140390 
898.828256  	0.136779 
900.757072  	0.133538 
902.685888  	0.131187 
904.614704  	0.129887 
906.543520  	0.129851 
908.472336  	0.131046 
910.401152  	0.133210 
912.329968  	0.136291 
914.258784  	0.139421 
916.187600  	0.142230 
918.116416  	0.144320 
920.045232  	0.145339 
921.974048  	0.145185 
923.902864  	0.144414 
925.831680  	0.143338 
927.760496  	0.142301 
929.689312  	0.141389 
931.618128  	0.141035 
933.546944  	0.141275 
935.475760  	0.141552 
937.404576  	0.141748 
939.333392  	0.142392 
941.262208  	0.143742 
943.191024  	0.146177 
945.119840  	0.150004 
947.048656  	0.154987 
948.977472  	0.161122 
950.906288  	0.168092 
952.835104  	0.175586 
954.763920  	0.183122 
956.692736  	0.189962 
958.621552  	0.195693 
960.550368  	0.199469 
962.479184  	0.200932 
964.408000  	0.199366 
966.336816  	0.195304 
968.265632  	0.188718 
970.194448  	0.180141 
972.123264  	0.170466 
974.052080  	0.160470 
975.980896  	0.150553 
977.909712  	0.141304 
979.838528  	0.133566 
981.767344  	0.127158 
983.696160  	0.122525 
985.624976  	0.120147 
987.553792  	0.120101 
989.482608  	0.121937 
991.411424  	0.125709 
993.340240  	0.130979 
995.269056  	0.137622 
997.197872  	0.144892 
999.126688  	0.151762 
1001.055504  	0.158605 
1002.984320  	0.165333 
1004.913136  	0.171648 
1006.841952  	0.177038 
1008.770768  	0.181636 
1010.699584  	0.184949 
1012.628400  	0.187055 
1014.557216  	0.188125 
1016.486032  	0.188550 
1018.414848  	0.188727 
1020.343664  	0.189191 
1022.272480  	0.189328 
1024.201296  	0.188792 
1026.130112  	0.186646 
1028.058928  	0.186144 
1029.987744  	0.188603 
1031.916560  	0.190469 
1033.845376  	0.191768 
1035.774192  	0.192770 
1037.703008  	0.194487 
1039.631824  	0.199349 
1041.560640  	0.205844 
1043.489456  	0.214079 
1045.418272  	0.224423 
1047.347088  	0.237418 
1049.275904  	0.251289 
1051.204720  	0.264316 
1053.133536  	0.275527 
1055.062352  	0.284235 
1056.991168  	0.289175 
1058.919984  	0.293280 
1060.848800  	0.295220 
1062.777616  	0.293779 
1064.706432  	0.288443 
1066.635248  	0.283445 
1068.564064  	0.281080 
1070.492880  	0.276514 
1072.421696  	0.269310 
1074.350512  	0.262762 
1076.279328  	0.257646 
1078.208144  	0.254697 
1080.136960  	0.253428 
1082.065776  	0.252719 
1083.994592  	0.251700 
1085.923408  	0.250317 
1087.852224  	0.247953 
1089.781040  	0.245263 
1091.709856  	0.241420 
1093.638672  	0.235283 
1095.567488  	0.227062 
1097.496304  	0.218191 
1099.425120  	0.208470 
1101.353936  	0.198772 
1103.282752  	0.188582 
1105.211568  	0.178158 
1107.140384  	0.168120 
1109.069200  	0.158282 
1110.998016  	0.149213 
1112.926832  	0.140749 
1114.855648  	0.132398 
1116.784464  	0.124431 
1118.713280  	0.117311 
1120.642096  	0.110899 
1122.570912  	0.104487 
1124.499728  	0.098424 
1126.428544  	0.092829 
1128.357360  	0.087513 
1130.286176  	0.082764 
1132.214992  	0.078796 
1134.143808  	0.075539 
1136.072624  	0.072504 
1138.001440  	0.069481 
1139.930256  	0.066499 
1141.859072  	0.063758 
1143.787888  	0.061058 
1145.716704  	0.058914 
1147.645520  	0.057140 
1149.574336  	0.055766 
1151.503152  	0.054757 
1153.431968  	0.054405 
1155.360784  	0.054352 
1157.289600  	0.054721 
1159.218416  	0.055713 
1161.147232  	0.057227 
1163.076048  	0.058713 
1165.004864  	0.060513 
1166.933680  	0.062324 
1168.862496  	0.064504 
1170.791312  	0.067001 
1172.720128  	0.069444 
1174.648944  	0.071851 
1176.577760  	0.074536 
1178.506576  	0.077053 
1180.435392  	0.079421 
1182.364208  	0.081800 
1184.293024  	0.084696 
1186.221840  	0.087644 
1188.150656  	0.090752 
1190.079472  	0.094448 
1192.008288  	0.098855 
1193.937104  	0.103766 
1195.865920  	0.109578 
1197.794736  	0.115731 
1199.723552  	0.122417 
1201.652368  	0.129417 
1203.581184  	0.136699 
1205.510000  	0.143863 
1207.438816  	0.151033 
1209.367632  	0.157912 
1211.296448  	0.164384 
1213.225264  	0.170364 
1215.154080  	0.175110 
1217.082896  	0.178918 
1219.011712  	0.182121 
1220.940528  	0.184936 
1222.869344  	0.187214 
1224.798160  	0.188947 
1226.726976  	0.190106 
1228.655792  	0.190887 
1230.584608  	0.190967 
1232.513424  	0.190388 
1234.442240  	0.188747 
1236.371056  	0.186239 
1238.299872  	0.182748 
1240.228688  	0.177290 
1242.157504  	0.171298 
1244.086320  	0.166057 
1246.015136  	0.159199 
1247.943952  	0.151577 
1249.872768  	0.144128 
1251.801584  	0.137491 
1253.730400  	0.130897 
1255.659216  	0.124536 
1257.588032  	0.118251 
1259.516848  	0.112399 
1261.445664  	0.107136 
1263.374480  	0.102302 
1265.303296  	0.098004 
1267.232112  	0.094475 
1269.160928  	0.091782 
1271.089744  	0.089951 
1273.018560  	0.088991 
1274.947376  	0.088661 
1276.876192  	0.088392 
1278.805008  	0.087599 
1280.733824  	0.085946 
1282.662640  	0.083042 
1284.591456  	0.079437 
1286.520272  	0.075867 
1288.449088  	0.072848 
1290.377904  	0.070388 
1292.306720  	0.068482 
1294.235536  	0.066315 
1296.164352  	0.063440 
1298.093168  	0.059928 
1300.021984  	0.056328 
1301.950800  	0.052904 
1303.879616  	0.050092 
1305.808432  	0.047811 
1307.737248  	0.046003 
1309.666064  	0.044351 
1311.594880  	0.043483 
1313.523696  	0.042981 
1315.452512  	0.042797 
1317.381328  	0.043139 
1319.310144  	0.043743 
1321.238960  	0.044313 
1323.167776  	0.044975 
1325.096592  	0.045555 
1327.025408  	0.045848 
1328.954224  	0.045500 
1330.883040  	0.044734 
1332.811856  	0.043720 
1334.740672  	0.043006 
1336.669488  	0.042470 
1338.598304  	0.042369 
1340.527120  	0.041704 
1342.455936  	0.040520 
1344.384752  	0.040115 
1346.313568  	0.040578 
1348.242384  	0.041598 
1350.171200  	0.043141 
1352.100016  	0.044991 
1354.028832  	0.047044 
1355.957648  	0.049106 
1357.886464  	0.051037 
1359.815280  	0.052890 
1361.744096  	0.055044 
1363.672912  	0.056394 
1365.601728  	0.056459 
1367.530544  	0.056816 
1369.459360  	0.056890 
1371.388176  	0.055900 
1373.316992  	0.054532 
1375.245808  	0.052333 
1377.174624  	0.049886 
1379.103440  	0.047490 
1381.032256  	0.045278 
1382.961072  	0.043690 
1384.889888  	0.043029 
1386.818704  	0.042942 
1388.747520  	0.041976 
1390.676336  	0.039811 
1392.605152  	0.036960 
1394.533968  	0.036166 
1396.462784  	0.038616 
1398.391600  	0.039565 
1400.320416  	0.039556 
1402.249232  	0.039416 
1404.178048  	0.040416 
1406.106864  	0.041593 
1408.035680  	0.043137 
1409.964496  	0.045330 
1411.893312  	0.047958 
1413.822128  	0.050385 
1415.750944  	0.053117 
1417.679760  	0.055043 
1419.608576  	0.055492 
1421.537392  	0.054843 
1423.466208  	0.054385 
1425.395024  	0.053009 
1427.323840  	0.051119 
1429.252656  	0.049517 
1431.181472  	0.048585 
1433.110288  	0.048127 
1435.039104  	0.048214 
1436.967920  	0.048879 
1438.896736  	0.049192 
1440.825552  	0.049351 
1442.754368  	0.049879 
1444.683184  	0.049978 
1446.612000  	0.050082 
1448.540816  	0.050050 
1450.469632  	0.050108 
1452.398448  	0.050337 
1454.327264  	0.050620 
1456.256080  	0.051233 
1458.184896  	0.051991 
1460.113712  	0.051943 
1462.042528  	0.052056 
1463.971344  	0.052416 
1465.900160  	0.054357 
1467.828976  	0.056581 
1469.757792  	0.058962 
1471.686608  	0.062216 
1473.615424  	0.067677 
1475.544240  	0.071430 
1477.473056  	0.074125 
1479.401872  	0.075254 
1481.330688  	0.076203 
1483.259504  	0.076268 
1485.188320  	0.075575 
1487.117136  	0.074209 
1489.045952  	0.072865 
1490.974768  	0.069779 
1492.903584  	0.066050 
1494.832400  	0.062417 
1496.761216  	0.058526 
1498.690032  	0.054979 
1500.618848  	0.052513 
1502.547664  	0.049920 
1504.476480  	0.047016 
1506.405296  	0.045517 
1508.334112  	0.046336 
1510.262928  	0.044818 
1512.191744  	0.043030 
1514.120560  	0.041800 
1516.049376  	0.041743 
1517.978192  	0.041902 
1519.907008  	0.042351 
1521.835824  	0.044456 
1523.764640  	0.047204 
1525.693456  	0.050053 
1527.622272  	0.052482 
1529.551088  	0.053508 
1531.479904  	0.053738 
1533.408720  	0.053090 
1535.337536  	0.051931 
1537.266352  	0.049385 
1539.195168  	0.045201 
1541.123984  	0.042986 
1543.052800  	0.043655 
1544.981616  	0.043168 
1546.910432  	0.041631 
1548.839248  	0.041062 
1550.768064  	0.041363 
1552.696880  	0.040787 
1554.625696  	0.041235 
1556.554512  	0.040624 
1558.483328  	0.040933 
1560.412144  	0.046271 
1562.340960  	0.049164 
1564.269776  	0.051410 
1566.198592  	0.055348 
1568.127408  	0.058409 
1570.056224  	0.063727 
1571.985040  	0.068401 
1573.913856  	0.070552 
1575.842672  	0.071933 
1577.771488  	0.074829 
1579.700304  	0.075239 
1581.629120  	0.075189 
1583.557936  	0.075330 
1585.486752  	0.076854 
1587.415568  	0.079515 
1589.344384  	0.083748 
1591.273200  	0.088607 
1593.202016  	0.094302 
1595.130832  	0.099886 
1597.059648  	0.105425 
1598.988464  	0.109631 
1600.917280  	0.113150 
1602.846096  	0.115113 
1604.774912  	0.116186 
1606.703728  	0.115670 
1608.632544  	0.115039 
1610.561360  	0.114028 
1612.490176  	0.113573 
1614.418992  	0.112666 
1616.347808  	0.113411 
1618.276624  	0.116859 
1620.205440  	0.120603 
1622.134256  	0.124294 
1624.063072  	0.131548 
1625.991888  	0.138115 
1627.920704  	0.145562 
1629.849520  	0.153902 
1631.778336  	0.161011 
1633.707152  	0.165800 
1635.635968  	0.173294 
1637.564784  	0.181931 
1639.493600  	0.186667 
1641.422416  	0.190278 
1643.351232  	0.192750 
1645.280048  	0.193204 
1647.208864  	0.194902 
1649.137680  	0.195475 
1651.066496  	0.193383 
1652.995312  	0.190515 
1654.924128  	0.192315 
1656.852944  	0.190649 
1658.781760  	0.188657 
1660.710576  	0.186386 
1662.639392  	0.184328 
1664.568208  	0.182810 
1666.497024  	0.181101 
1668.425840  	0.178659 
1670.354656  	0.177131 
1672.283472  	0.176238 
1674.212288  	0.175239 
1676.141104  	0.175249 
1678.069920  	0.175655 
1679.998736  	0.176025 
1681.927552  	0.175410 
1683.856368  	0.174267 
1685.785184  	0.175940 
1687.714000  	0.175485 
1689.642816  	0.174029 
1691.571632  	0.171711 
1693.500448  	0.168922 
1695.429264  	0.164819 
1697.358080  	0.161471 
1699.286896  	0.157302 
1701.215712  	0.152514 
1703.144528  	0.148881 
1705.073344  	0.143752 
1707.002160  	0.138151 
1708.930976  	0.133212 
1710.859792  	0.127676 
1712.788608  	0.121510 
1714.717424  	0.114982 
1716.646240  	0.107496 
1718.575056  	0.099594 
1720.503872  	0.092992 
1722.432688  	0.087032 
1724.361504  	0.080059 
1726.290320  	0.073763 
1728.219136  	0.067923 
1730.147952  	0.062635 
1732.076768  	0.057234 
1734.005584  	0.051616 
1735.934400  	0.045947 
1737.863216  	0.042197 
1739.792032  	0.037259 
1741.720848  	0.034122 
1743.649664  	0.031502 
1745.578480  	0.028509 
1747.507296  	0.025615 
1749.436112  	0.024068 
1751.364928  	0.022507 
1753.293744  	0.020776 
1755.222560  	0.019201 
1757.151376  	0.018511 
1759.080192  	0.017303 
1761.009008  	0.016716 
1762.937824  	0.015978 
1764.866640  	0.015397 
1766.795456  	0.014935 
1768.724272  	0.014903 
1770.653088  	0.013369 
1772.581904  	0.012888 
1774.510720  	0.013327 
1776.439536  	0.013546 
1778.368352  	0.013163 
1780.297168  	0.013160 
1782.225984  	0.012742 
1784.154800  	0.012745 
1786.083616  	0.012560 
1788.012432  	0.012300 
1789.941248  	0.011899 
1791.870064  	0.011845 
1793.798880  	0.011532 
1795.727696  	0.011788 
1797.656512  	0.011318 
1799.585328  	0.011206 
1801.514144  	0.011297 
1803.442960  	0.010860 
1805.371776  	0.010429 
1807.300592  	0.010609 
1809.229408  	0.010111 
1811.158224  	0.010048 
1813.087040  	0.009885 
1815.015856  	0.009621 
1816.944672  	0.009480 
1818.873488  	0.009746 
1820.802304  	0.009738 
1822.731120  	0.009895 
1824.659936  	0.009815 
1826.588752  	0.009786 
1828.517568  	0.009294 
1830.446384  	0.009874 
1832.375200  	0.010024 
1834.304016  	0.009822 
1836.232832  	0.009482 
1838.161648  	0.009853 
1840.090464  	0.009768 
1842.019280  	0.009672 
1843.948096  	0.009374 
1845.876912  	0.009850 
1847.805728  	0.009783 
1849.734544  	0.009660 
1851.663360  	0.009173 
1853.592176  	0.009161 
1855.520992  	0.009034 
1857.449808  	0.009547 
1859.378624  	0.009417 
1861.307440  	0.009322 
1863.236256  	0.009076 
1865.165072  	0.009309 
1867.093888  	0.009398 
1869.022704  	0.009963 
1870.951520  	0.009678 
1872.880336  	0.009531 
1874.809152  	0.009057 
1876.737968  	0.009101 
1878.666784  	0.008784 
1880.595600  	0.008957 
1882.524416  	0.008971 
1884.453232  	0.008977 
1886.382048  	0.008555 
1888.310864  	0.008761 
1890.239680  	0.009148 
1892.168496  	0.009191 
1894.097312  	0.008697 
1896.026128  	0.008927 
1897.954944  	0.008591 
1899.883760  	0.008482 
1901.812576  	0.008283 
1903.741392  	0.008564 
1905.670208  	0.008547 
1907.599024  	0.008701 
1909.527840  	0.008674 
1911.456656  	0.009046 
1913.385472  	0.008928 
1915.314288  	0.009025 
1917.243104  	0.009023 
1919.171920  	0.009043 
1921.100736  	0.008889 
1923.029552  	0.009569 
1924.958368  	0.008861 
1926.887184  	0.008859 
1928.816000  	0.008401 
1930.744816  	0.008110 
1932.673632  	0.007682 
1934.602448  	0.008206 
1936.531264  	0.008351 
1938.460080  	0.008679 
1940.388896  	0.008703 
1942.317712  	0.009117 
1944.246528  	0.008591 
1946.175344  	0.009033 
1948.104160  	0.008127 
1950.032976  	0.007992 
1951.961792  	0.008233 
1953.890608  	0.008605 
1955.819424  	0.007794 
1957.748240  	0.007961 
1959.677056  	0.008008 
1961.605872  	0.008175 
1963.534688  	0.007724 
1965.463504  	0.009266 
1967.392320  	0.008929 
1969.321136  	0.008181 
1971.249952  	0.007700 
1973.178768  	0.008954 
1975.107584  	0.008259 
1977.036400  	0.008334 
1978.965216  	0.010548 
1980.894032  	0.010628 
1982.822848  	0.008067 
1984.751664  	0.008357 
1986.680480  	0.008547 
1988.609296  	0.008872 
1990.538112  	0.008671 
1992.466928  	0.009054 
1994.395744  	0.008132 
1996.324560  	0.008197 
1998.253376  	0.007916 
2000.182192  	0.008802 
2002.111008  	0.009152 
2004.039824  	0.008345 
2005.968640  	0.007241 
2007.897456  	0.009386 
2009.826272  	0.009193 
2011.755088  	0.007971 
2013.683904  	0.008062 
2015.612720  	0.009670 
2017.541536  	0.008721 
2019.470352  	0.008416 
2021.399168  	0.008088 
2023.327984  	0.008666 
2025.256800  	0.008437 
2027.185616  	0.008260 
2029.114432  	0.007577 
2031.043248  	0.008371 
2032.972064  	0.007898 
2034.900880  	0.008887 
2036.829696  	0.009083 
2038.758512  	0.009286 
2040.687328  	0.008884 
2042.616144  	0.008988 
2044.544960  	0.009016 
2046.473776  	0.009343 
2048.402592  	0.009111 
2050.331408  	0.010376 
2052.260224  	0.009485 
2054.189040  	0.008879 
2056.117856  	0.008491 
2058.046672  	0.008689 
2059.975488  	0.008531 
2061.904304  	0.008171 
2063.833120  	0.009013 
2065.761936  	0.009816 
2067.690752  	0.008983 
2069.619568  	0.008484 
2071.548384  	0.007813 
2073.477200  	0.008200 
2075.406016  	0.008966 
2077.334832  	0.009433 
2079.263648  	0.008929 
2081.192464  	0.008876 
2083.121280  	0.009049 
2085.050096  	0.009087 
2086.978912  	0.008525 
2088.907728  	0.008313 
2090.836544  	0.007980 
2092.765360  	0.007967 
2094.694176  	0.008216 
2096.622992  	0.008554 
2098.551808  	0.008458 
2100.480624  	0.008634 
2102.409440  	0.008308 
2104.338256  	0.008985 
2106.267072  	0.009124 
2108.195888  	0.009006 
2110.124704  	0.009340 
2112.053520  	0.009504 
2113.982336  	0.009126 
2115.911152  	0.009181 
2117.839968  	0.008466 
2119.768784  	0.007839 
2121.697600  	0.007396 
2123.626416  	0.007260 
2125.555232  	0.007209 
2127.484048  	0.007883 
2129.412864  	0.007724 
2131.341680  	0.006620 
2133.270496  	0.006996 
2135.199312  	0.008067 
2137.128128  	0.008582 
2139.056944  	0.008483 
2140.985760  	0.007734 
2142.914576  	0.008425 
2144.843392  	0.007993 
2146.772208  	0.008593 
2148.701024  	0.009142 
2150.629840  	0.009045 
2152.558656  	0.007055 
2154.487472  	0.006148 
2156.416288  	0.005576 
2158.345104  	0.008599 
2160.273920  	0.011536 
2162.202736  	0.011530 
2164.131552  	0.010589 
2166.060368  	0.011820 
2167.989184  	0.010233 
2169.918000  	0.009106 
2171.846816  	0.009119 
2173.775632  	0.009294 
2175.704448  	0.009722 
2177.633264  	0.010223 
2179.562080  	0.009603 
2181.490896  	0.009683 
2183.419712  	0.009405 
2185.348528  	0.010098 
2187.277344  	0.009374 
2189.206160  	0.009502 
2191.134976  	0.010599 
2193.063792  	0.011629 
2194.992608  	0.011350 
2196.921424  	0.010464 
2198.850240  	0.010296 
2200.779056  	0.010019 
2202.707872  	0.009766 
2204.636688  	0.010345 
2206.565504  	0.010307 
2208.494320  	0.010622 
2210.423136  	0.010089 
2212.351952  	0.010210 
2214.280768  	0.010176 
2216.209584  	0.009735 
2218.138400  	0.009340 
2220.067216  	0.009755 
2221.996032  	0.009871 
2223.924848  	0.009074 
2225.853664  	0.009132 
2227.782480  	0.009988 
2229.711296  	0.010224 
2231.640112  	0.009902 
2233.568928  	0.009408 
2235.497744  	0.009545 
2237.426560  	0.009452 
2239.355376  	0.009488 
2241.284192  	0.009126 
2243.213008  	0.009350 
2245.141824  	0.009322 
2247.070640  	0.009104 
2248.999456  	0.009073 
2250.928272  	0.009226 
2252.857088  	0.008868 
2254.785904  	0.008829 
2256.714720  	0.009592 
2258.643536  	0.010118 
2260.572352  	0.009750 
2262.501168  	0.009592 
2264.429984  	0.009621 
2266.358800  	0.010311 
2268.287616  	0.010207 
2270.216432  	0.009865 
2272.145248  	0.009445 
2274.074064  	0.009583 
2276.002880  	0.009647 
2277.931696  	0.010292 
2279.860512  	0.010699 
2281.789328  	0.010944 
2283.718144  	0.011037 
2285.646960  	0.011251 
2287.575776  	0.011277 
2289.504592  	0.010944 
2291.433408  	0.010491 
2293.362224  	0.010463 
2295.291040  	0.010594 
2297.219856  	0.010802 
2299.148672  	0.010816 
2301.077488  	0.010973 
2303.006304  	0.011123 
2304.935120  	0.011177 
2306.863936  	0.010982 
2308.792752  	0.010716 
2310.721568  	0.010628 
2312.650384  	0.010341 
2314.579200  	0.009730 
2316.508016  	0.009542 
2318.436832  	0.009119 
2320.365648  	0.008464 
2322.294464  	0.007762 
2324.223280  	0.006590 
2326.152096  	0.004685 
2328.080912  	0.003370 
2330.009728  	0.002663 
2331.938544  	0.001809 
2333.867360  	0.000464 
2335.796176  	-0.000274 
2337.724992  	-0.000863 
2339.653808  	-0.001057 
2341.582624  	-0.000405 
2343.511440  	0.001121 
2345.440256  	0.002722 
2347.369072  	0.005196 
2349.297888  	0.005746 
2351.226704  	0.003426 
2353.155520  	0.000677 
2355.084336  	-0.001503 
2357.013152  	-0.003436 
2358.941968  	-0.004550 
2360.870784  	-0.005089 
2362.799600  	-0.004439 
2364.728416  	-0.003432 
2366.657232  	-0.001849 
2368.586048  	-0.000118 
2370.514864  	0.002252 
2372.443680  	0.004413 
2374.372496  	0.006645 
2376.301312  	0.008243 
2378.230128  	0.009626 
2380.158944  	0.010198 
2382.087760  	0.010276 
2384.016576  	0.010467 
2385.945392  	0.010655 
2387.874208  	0.010345 
2389.803024  	0.010001 
2391.731840  	0.009702 
2393.660656  	0.009692 
2395.589472  	0.009876 
2397.518288  	0.009959 
2399.447104  	0.009805 
2401.375920  	0.009665 
2403.304736  	0.009896 
2405.233552  	0.010208 
2407.162368  	0.010271 
2409.091184  	0.010127 
2411.020000  	0.010072 
2412.948816  	0.010196 
2414.877632  	0.010250 
2416.806448  	0.010397 
2418.735264  	0.010451 
2420.664080  	0.010347 
2422.592896  	0.010171 
2424.521712  	0.010200 
2426.450528  	0.010408 
2428.379344  	0.010562 
2430.308160  	0.010544 
2432.236976  	0.010485 
2434.165792  	0.010721 
2436.094608  	0.011327 
2438.023424  	0.011455 
2439.952240  	0.011527 
2441.881056  	0.011562 
2443.809872  	0.011373 
2445.738688  	0.011125 
2447.667504  	0.011146 
2449.596320  	0.011256 
2451.525136  	0.011464 
2453.453952  	0.011515 
2455.382768  	0.011742 
2457.311584  	0.011842 
2459.240400  	0.011911 
2461.169216  	0.011756 
2463.098032  	0.011479 
2465.026848  	0.011501 
2466.955664  	0.011615 
2468.884480  	0.011513 
2470.813296  	0.011464 
2472.742112  	0.011341 
2474.670928  	0.011534 
2476.599744  	0.011689 
2478.528560  	0.011779 
2480.457376  	0.011981 
2482.386192  	0.012046 
2484.315008  	0.011969 
2486.243824  	0.011942 
2488.172640  	0.011850 
2490.101456  	0.011991 
2492.030272  	0.012241 
2493.959088  	0.012200 
2495.887904  	0.011920 
2497.816720  	0.012046 
2499.745536  	0.012320 
2501.674352  	0.012601 
2503.603168  	0.012603 
2505.531984  	0.012654 
2507.460800  	0.012755 
2509.389616  	0.012803 
2511.318432  	0.012503 
2513.247248  	0.012467 
2515.176064  	0.012676 
2517.104880  	0.013095 
2519.033696  	0.013182 
2520.962512  	0.013103 
2522.891328  	0.013413 
2524.820144  	0.013385 
2526.748960  	0.013262 
2528.677776  	0.013451 
2530.606592  	0.013577 
2532.535408  	0.013535 
2534.464224  	0.013388 
2536.393040  	0.013367 
2538.321856  	0.013247 
2540.250672  	0.013457 
2542.179488  	0.013631 
2544.108304  	0.013783 
2546.037120  	0.013738 
2547.965936  	0.014160 
2549.894752  	0.014481 
2551.823568  	0.014444 
2553.752384  	0.014488 
2555.681200  	0.014570 
2557.610016  	0.014556 
2559.538832  	0.014657 
2561.467648  	0.014762 
2563.396464  	0.014980 
2565.325280  	0.015256 
2567.254096  	0.015311 
2569.182912  	0.015312 
2571.111728  	0.015195 
2573.040544  	0.014865 
2574.969360  	0.014901 
2576.898176  	0.015134 
2578.826992  	0.015434 
2580.755808  	0.015523 
2582.684624  	0.015586 
2584.613440  	0.015534 
2586.542256  	0.015679 
2588.471072  	0.015849 
2590.399888  	0.015796 
2592.328704  	0.015784 
2594.257520  	0.016176 
2596.186336  	0.016531 
2598.115152  	0.016492 
2600.043968  	0.016274 
2601.972784  	0.016352 
2603.901600  	0.016597 
2605.830416  	0.016782 
2607.759232  	0.016649 
2609.688048  	0.016762 
2611.616864  	0.016851 
2613.545680  	0.016924 
2615.474496  	0.017048 
2617.403312  	0.017215 
2619.332128  	0.017341 
2621.260944  	0.017335 
2623.189760  	0.017394 
2625.118576  	0.017584 
2627.047392  	0.017771 
2628.976208  	0.018030 
2630.905024  	0.018142 
2632.833840  	0.018255 
2634.762656  	0.018304 
2636.691472  	0.018334 
2638.620288  	0.018346 
2640.549104  	0.018516 
2642.477920  	0.018688 
2644.406736  	0.018798 
2646.335552  	0.019035 
2648.264368  	0.019197 
2650.193184  	0.019252 
2652.122000  	0.019424 
2654.050816  	0.019567 
2655.979632  	0.019586 
2657.908448  	0.019636 
2659.837264  	0.019725 
2661.766080  	0.019667 
2663.694896  	0.019700 
2665.623712  	0.019720 
2667.552528  	0.019718 
2669.481344  	0.019904 
2671.410160  	0.020146 
2673.338976  	0.020207 
2675.267792  	0.020319 
2677.196608  	0.020484 
2679.125424  	0.020577 
2681.054240  	0.020743 
2682.983056  	0.020853 
2684.911872  	0.020987 
2686.840688  	0.021110 
2688.769504  	0.021243 
2690.698320  	0.021282 
2692.627136  	0.021320 
2694.555952  	0.021418 
2696.484768  	0.021408 
2698.413584  	0.021526 
2700.342400  	0.021663 
2702.271216  	0.021826 
2704.200032  	0.022072 
2706.128848  	0.022247 
2708.057664  	0.022349 
2709.986480  	0.022375 
2711.915296  	0.022332 
2713.844112  	0.022422 
2715.772928  	0.022663 
2717.701744  	0.022815 
2719.630560  	0.022875 
2721.559376  	0.022835 
2723.488192  	0.022875 
2725.417008  	0.023211 
2727.345824  	0.023437 
2729.274640  	0.023419 
2731.203456  	0.023482 
2733.132272  	0.023615 
2735.061088  	0.023689 
2736.989904  	0.023824 
2738.918720  	0.023908 
2740.847536  	0.023964 
2742.776352  	0.024152 
2744.705168  	0.024277 
2746.633984  	0.024305 
2748.562800  	0.024337 
2750.491616  	0.024455 
2752.420432  	0.024513 
2754.349248  	0.024464 
2756.278064  	0.024459 
2758.206880  	0.024509 
2760.135696  	0.024718 
2762.064512  	0.024826 
2763.993328  	0.024724 
2765.922144  	0.024746 
2767.850960  	0.024813 
2769.779776  	0.024843 
2771.708592  	0.024878 
2773.637408  	0.024858 
2775.566224  	0.024946 
2777.495040  	0.025070 
2779.423856  	0.025102 
2781.352672  	0.025098 
2783.281488  	0.025185 
2785.210304  	0.025221 
2787.139120  	0.025384 
2789.067936  	0.025509 
2790.996752  	0.025474 
2792.925568  	0.025567 
2794.854384  	0.025676 
2796.783200  	0.025728 
2798.712016  	0.025748 
2800.640832  	0.025830 
2802.569648  	0.025928 
2804.498464  	0.025922 
2806.427280  	0.025982 
2808.356096  	0.026075 
2810.284912  	0.026268 
2812.213728  	0.026287 
2814.142544  	0.026262 
2816.071360  	0.026382 
2818.000176  	0.026255 
2819.928992  	0.026068 
2821.857808  	0.026110 
2823.786624  	0.026102 
2825.715440  	0.026051 
2827.644256  	0.025823 
2829.573072  	0.025757 
2831.501888  	0.025536 
2833.430704  	0.025299 
2835.359520  	0.025193 
2837.288336  	0.024954 
2839.217152  	0.024714 
2841.145968  	0.024538 
2843.074784  	0.024351 
2845.003600  	0.024242 
2846.932416  	0.024315 
2848.861232  	0.024323 
2850.790048  	0.024098 
2852.718864  	0.023574 
2854.647680  	0.023010 
2856.576496  	0.022607 
2858.505312  	0.022122 
2860.434128  	0.021618 
2862.362944  	0.021041 
2864.291760  	0.020339 
2866.220576  	0.019759 
2868.149392  	0.019658 
2870.078208  	0.019785 
2872.007024  	0.019892 
2873.935840  	0.019911 
2875.864656  	0.020026 
2877.793472  	0.020287 
2879.722288  	0.020307 
2881.651104  	0.019963 
2883.579920  	0.019675 
2885.508736  	0.019728 
2887.437552  	0.020116 
2889.366368  	0.020269 
2891.295184  	0.020059 
2893.224000  	0.019948 
2895.152816  	0.020081 
2897.081632  	0.019760 
2899.010448  	0.018544 
2900.939264  	0.017575 
2902.868080  	0.018574 
2904.796896  	0.019749 
2906.725712  	0.020233 
2908.654528  	0.020608 
2910.583344  	0.021064 
2912.512160  	0.022141 
2914.440976  	0.023566 
2916.369792  	0.024446 
2918.298608  	0.024921 
2920.227424  	0.025410 
2922.156240  	0.026002 
2924.085056  	0.026620 
2926.013872  	0.027474 
2927.942688  	0.028306 
2929.871504  	0.029067 
2931.800320  	0.029688 
2933.729136  	0.030190 
2935.657952  	0.030559 
2937.586768  	0.030995 
2939.515584  	0.031234 
2941.444400  	0.031156 
2943.373216  	0.031236 
2945.302032  	0.031442 
2947.230848  	0.031534 
2949.159664  	0.031246 
2951.088480  	0.030712 
2953.017296  	0.030238 
2954.946112  	0.029609 
2956.874928  	0.029021 
2958.803744  	0.028289 
2960.732560  	0.027718 
2962.661376  	0.027221 
2964.590192  	0.026317 
2966.519008  	0.025254 
2968.447824  	0.024406 
2970.376640  	0.023852 
2972.305456  	0.023346 
2974.234272  	0.023276 
2976.163088  	0.023187 
2978.091904  	0.023097 
2980.020720  	0.023083 
2981.949536  	0.023008 
2983.878352  	0.022587 
2985.807168  	0.021774 
2987.735984  	0.021243 
2989.664800  	0.021639 
2991.593616  	0.024049 
2993.522432  	0.025512 
2995.451248  	0.025781 
2997.380064  	0.026340 
2999.308880  	0.027331 
3001.237696  	0.028423 
3003.166512  	0.029329 
3005.095328  	0.030270 
3007.024144  	0.031494 
3008.952960  	0.032676 
3010.881776  	0.033647 
3012.810592  	0.034575 
3014.739408  	0.035415 
3016.668224  	0.036368 
3018.597040  	0.037301 
3020.525856  	0.038131 
3022.454672  	0.039018 
3024.383488  	0.039803 
3026.312304  	0.040465 
3028.241120  	0.041062 
3030.169936  	0.041661 
3032.098752  	0.042476 
3034.027568  	0.042941 
3035.956384  	0.043272 
3037.885200  	0.043850 
3039.814016  	0.044407 
3041.742832  	0.044949 
3043.671648  	0.045394 
3045.600464  	0.045645 
3047.529280  	0.045934 
3049.458096  	0.046274 
3051.386912  	0.046553 
3053.315728  	0.046988 
3055.244544  	0.047539 
3057.173360  	0.048157 
3059.102176  	0.048628 
3061.030992  	0.048990 
3062.959808  	0.049210 
3064.888624  	0.049559 
3066.817440  	0.050084 
3068.746256  	0.050568 
3070.675072  	0.050797 
3072.603888  	0.051206 
3074.532704  	0.051841 
3076.461520  	0.052347 
3078.390336  	0.052664 
3080.319152  	0.053138 
3082.247968  	0.053655 
3084.176784  	0.054111 
3086.105600  	0.054392 
3088.034416  	0.054777 
3089.963232  	0.055407 
3091.892048  	0.055866 
3093.820864  	0.056157 
3095.749680  	0.056538 
3097.678496  	0.056831 
3099.607312  	0.057194 
3101.536128  	0.057576 
3103.464944  	0.058051 
3105.393760  	0.058437 
3107.322576  	0.058897 
3109.251392  	0.059364 
3111.180208  	0.059662 
3113.109024  	0.059777 
3115.037840  	0.059994 
3116.966656  	0.060376 
3118.895472  	0.060818 
3120.824288  	0.061130 
3122.753104  	0.061512 
3124.681920  	0.061777 
3126.610736  	0.061844 
3128.539552  	0.061979 
3130.468368  	0.062248 
3132.397184  	0.062557 
3134.326000  	0.062800 
3136.254816  	0.062994 
3138.183632  	0.063373 
3140.112448  	0.063619 
3142.041264  	0.063818 
3143.970080  	0.064159 
3145.898896  	0.064378 
3147.827712  	0.064556 
3149.756528  	0.064966 
3151.685344  	0.065506 
3153.614160  	0.065756 
3155.542976  	0.065776 
3157.471792  	0.066033 
3159.400608  	0.066608 
3161.329424  	0.067176 
3163.258240  	0.067603 
3165.187056  	0.067844 
3167.115872  	0.068033 
3169.044688  	0.068224 
3170.973504  	0.068342 
3172.902320  	0.068481 
3174.831136  	0.068642 
3176.759952  	0.068976 
3178.688768  	0.069389 
3180.617584  	0.069478 
3182.546400  	0.069173 
3184.475216  	0.069290 
3186.404032  	0.069571 
3188.332848  	0.069749 
3190.261664  	0.070024 
3192.190480  	0.070071 
3194.119296  	0.069877 
3196.048112  	0.069884 
3197.976928  	0.070221 
3199.905744  	0.070165 
3201.834560  	0.069976 
3203.763376  	0.069908 
3205.692192  	0.069769 
3207.621008  	0.069710 
3209.549824  	0.069507 
3211.478640  	0.069296 
3213.407456  	0.069205 
3215.336272  	0.069204 
3217.265088  	0.069024 
3219.193904  	0.068583 
3221.122720  	0.068241 
3223.051536  	0.068087 
3224.980352  	0.067846 
3226.909168  	0.067443 
3228.837984  	0.067166 
3230.766800  	0.067378 
3232.695616  	0.067542 
3234.624432  	0.067231 
3236.553248  	0.067129 
3238.482064  	0.067074 
3240.410880  	0.066969 
3242.339696  	0.066904 
3244.268512  	0.066861 
3246.197328  	0.066855 
3248.126144  	0.066841 
3250.054960  	0.066882 
3251.983776  	0.066857 
3253.912592  	0.067021 
3255.841408  	0.067154 
3257.770224  	0.067205 
3259.699040  	0.067395 
3261.627856  	0.067546 
3263.556672  	0.067627 
3265.485488  	0.067777 
3267.414304  	0.067819 
3269.343120  	0.067811 
3271.271936  	0.068080 
3273.200752  	0.068309 
3275.129568  	0.068397 
3277.058384  	0.068524 
3278.987200  	0.068669 
3280.916016  	0.068888 
3282.844832  	0.069064 
3284.773648  	0.069089 
3286.702464  	0.069138 
3288.631280  	0.069313 
3290.560096  	0.069588 
3292.488912  	0.069918 
3294.417728  	0.070024 
3296.346544  	0.070187 
3298.275360  	0.070359 
3300.204176  	0.070668 
3302.132992  	0.070981 
3304.061808  	0.071252 
3305.990624  	0.071591 
3307.919440  	0.071809 
3309.848256  	0.071856 
3311.777072  	0.071861 
3313.705888  	0.072202 
3315.634704  	0.072622 
3317.563520  	0.072841 
3319.492336  	0.072898 
3321.421152  	0.072908 
3323.349968  	0.073014 
3325.278784  	0.073277 
3327.207600  	0.073474 
3329.136416  	0.073404 
3331.065232  	0.073404 
3332.994048  	0.073596 
3334.922864  	0.073627 
3336.851680  	0.073516 
3338.780496  	0.073396 
3340.709312  	0.073185 
3342.638128  	0.073047 
3344.566944  	0.072879 
3346.495760  	0.072706 
3348.424576  	0.072542 
3350.353392  	0.072229 
3352.282208  	0.071930 
3354.211024  	0.071716 
3356.139840  	0.071570 
3358.068656  	0.071232 
3359.997472  	0.070846 
3361.926288  	0.070547 
3363.855104  	0.070244 
3365.783920  	0.069966 
3367.712736  	0.069750 
3369.641552  	0.069300 
3371.570368  	0.068679 
3373.499184  	0.068412 
3375.428000  	0.068311 
3377.356816  	0.068066 
3379.285632  	0.067778 
3381.214448  	0.067460 
3383.143264  	0.066987 
3385.072080  	0.066768 
3387.000896  	0.066334 
3388.929712  	0.065988 
3390.858528  	0.065671 
3392.787344  	0.065403 
3394.716160  	0.064938 
3396.644976  	0.064588 
3398.573792  	0.064320 
3400.502608  	0.063795 
3402.431424  	0.063258 
3404.360240  	0.063007 
3406.289056  	0.062662 
3408.217872  	0.062164 
3410.146688  	0.061684 
3412.075504  	0.061577 
3414.004320  	0.061457 
3415.933136  	0.061004 
3417.861952  	0.060393 
3419.790768  	0.060236 
3421.719584  	0.060049 
3423.648400  	0.059363 
3425.577216  	0.058797 
3427.506032  	0.058464 
3429.434848  	0.057947 
3431.363664  	0.057556 
3433.292480  	0.057465 
3435.221296  	0.057160 
3437.150112  	0.056620 
3439.078928  	0.056148 
3441.007744  	0.055765 
3442.936560  	0.055551 
3444.865376  	0.055013 
3446.794192  	0.054455 
3448.723008  	0.054189 
3450.651824  	0.053454 
3452.580640  	0.052837 
3454.509456  	0.052438 
3456.438272  	0.052000 
3458.367088  	0.051643 
3460.295904  	0.051138 
3462.224720  	0.050614 
3464.153536  	0.050057 
3466.082352  	0.049699 
3468.011168  	0.049353 
3469.939984  	0.048713 
3471.868800  	0.047944 
3473.797616  	0.047462 
3475.726432  	0.046985 
3477.655248  	0.046313 
3479.584064  	0.045785 
3481.512880  	0.045426 
3483.441696  	0.044762 
3485.370512  	0.044012 
3487.299328  	0.043656 
3489.228144  	0.043311 
3491.156960  	0.042334 
3493.085776  	0.041675 
3495.014592  	0.041343 
3496.943408  	0.040935 
3498.872224  	0.040525 
3500.801040  	0.040434 
3502.729856  	0.040025 
3504.658672  	0.039296 
3506.587488  	0.038321 
3508.516304  	0.038065 
3510.445120  	0.038059 
3512.373936  	0.037483 
3514.302752  	0.036858 
3516.231568  	0.036460 
3518.160384  	0.036042 
3520.089200  	0.035751 
3522.018016  	0.035626 
3523.946832  	0.035612 
3525.875648  	0.035096 
3527.804464  	0.034536 
3529.733280  	0.034111 
3531.662096  	0.033444 
3533.590912  	0.032854 
3535.519728  	0.032665 
3537.448544  	0.032519 
3539.377360  	0.031922 
3541.306176  	0.031351 
3543.234992  	0.031176 
3545.163808  	0.031645 
3547.092624  	0.031371 
3549.021440  	0.029938 
3550.950256  	0.029132 
3552.879072  	0.029218 
3554.807888  	0.028928 
3556.736704  	0.028299 
3558.665520  	0.028073 
3560.594336  	0.028003 
3562.523152  	0.027359 
3564.451968  	0.026985 
3566.380784  	0.027516 
3568.309600  	0.027495 
3570.238416  	0.026093 
3572.167232  	0.024853 
3574.096048  	0.024299 
3576.024864  	0.023867 
3577.953680  	0.023516 
3579.882496  	0.023275 
3581.811312  	0.022732 
3583.740128  	0.021982 
3585.668944  	0.021714 
3587.597760  	0.022416 
3589.526576  	0.021854 
3591.455392  	0.020041 
3593.384208  	0.019545 
3595.313024  	0.019207 
3597.241840  	0.018460 
3599.170656  	0.017584 
3601.099472  	0.017017 
3603.028288  	0.016671 
3604.957104  	0.015956 
3606.885920  	0.015519 
3608.814736  	0.015787 
3610.743552  	0.014980 
3612.672368  	0.013980 
3614.601184  	0.013505 
3616.530000  	0.012368 
3618.458816  	0.011869 
3620.387632  	0.011988 
3622.316448  	0.011038 
3624.245264  	0.009983 
3626.174080  	0.008733 
3628.102896  	0.007862 
3630.031712  	0.008841 
3631.960528  	0.008082 
3633.889344  	0.007082 
3635.818160  	0.006114 
3637.746976  	0.005549 
3639.675792  	0.005528 
3641.604608  	0.005083 
3643.533424  	0.003959 
3645.462240  	0.002232 
3647.391056  	0.001054 
3649.319872  	0.000773 
3651.248688  	0.001699 
3653.177504  	0.000738 
3655.106320  	-0.000842 
3657.035136  	-0.000875 
3658.963952  	-0.001266 
3660.892768  	-0.001995 
3662.821584  	-0.002508 
3664.750400  	-0.002790 
3666.679216  	-0.003656 
3668.608032  	-0.004772 
3670.536848  	-0.004392 
3672.465664  	-0.004508 
3674.394480  	-0.006306 
3676.323296  	-0.004781 
3678.252112  	-0.003256 
3680.180928  	-0.003001 
3682.109744  	-0.003545 
3684.038560  	-0.004309 
3685.967376  	-0.005305 
3687.896192  	-0.006352 
3689.825008  	-0.005666 
3691.753824  	-0.004405 
3693.682640  	-0.004034 
3695.611456  	-0.004105 
3697.540272  	-0.003744 
3699.469088  	-0.003787 
3701.397904  	-0.003181 
3703.326720  	-0.002265 
3705.255536  	-0.002293 
3707.184352  	-0.002959 
3709.113168  	-0.003328 
3711.041984  	-0.002728 
3712.970800  	-0.001511 
3714.899616  	-0.000912 
3716.828432  	-0.001357 
3718.757248  	-0.001798 
3720.686064  	-0.002095 
3722.614880  	-0.001521 
3724.543696  	-0.000945 
3726.472512  	-0.000720 
3728.401328  	-0.001393 
3730.330144  	-0.002946 
3732.258960  	-0.003357 
3734.187776  	-0.001971 
3736.116592  	-0.000204 
3738.045408  	-0.000747 
3739.974224  	-0.001552 
3741.903040  	-0.002470 
3743.831856  	-0.002427 
3745.760672  	-0.000632 
3747.689488  	-0.002407 
3749.618304  	-0.003417 
3751.547120  	-0.002200 
3753.475936  	-0.000527 
3755.404752  	-0.001163 
3757.333568  	-0.001977 
3759.262384  	-0.001843 
3761.191200  	-0.000972 
3763.120016  	-0.001255 
3765.048832  	-0.001572 
3766.977648  	-0.001520 
3768.906464  	-0.001818 
3770.835280  	-0.000970 
3772.764096  	-0.000766 
3774.692912  	-0.001202 
3776.621728  	-0.001697 
3778.550544  	-0.001877 
3780.479360  	-0.001215 
3782.408176  	-0.001334 
3784.336992  	-0.001500 
3786.265808  	-0.001123 
3788.194624  	-0.001125 
3790.123440  	-0.001318 
3792.052256  	-0.001442 
3793.981072  	-0.001845 
3795.909888  	-0.002006 
3797.838704  	-0.001866 
3799.767520  	-0.003063 
3801.696336  	-0.002528 
3803.625152  	-0.001689 
3805.553968  	-0.002645 
3807.482784  	-0.001760 
3809.411600  	-0.000910 
3811.340416  	-0.001159 
3813.269232  	-0.001966 
3815.198048  	-0.002902 
3817.126864  	-0.002136 
3819.055680  	-0.002883 
3820.984496  	-0.002618 
3822.913312  	-0.000794 
3824.842128  	-0.001379 
3826.770944  	-0.001684 
3828.699760  	-0.001742 
3830.628576  	-0.002320 
3832.557392  	-0.002202 
3834.486208  	-0.002495 
3836.415024  	-0.003249 
3838.343840  	-0.002611 
3840.272656  	-0.001588 
3842.201472  	-0.001497 
3844.130288  	-0.001330 
3846.059104  	-0.001180 
3847.987920  	-0.001716 
3849.916736  	-0.002680 
3851.845552  	-0.004060 
3853.774368  	-0.002024 
3855.703184  	-0.000386 
3857.632000  	-0.000995 
3859.560816  	-0.001615 
3861.489632  	-0.001999 
3863.418448  	-0.001961 
3865.347264  	-0.001307 
3867.276080  	-0.001949 
3869.204896  	-0.002155 
3871.133712  	-0.000345 
3873.062528  	-0.000953 
3874.991344  	-0.000882 
3876.920160  	-0.001366 
3878.848976  	-0.001787 
3880.777792  	-0.000879 
3882.706608  	-0.000803 
3884.635424  	-0.001286 
3886.564240  	-0.000449 
3888.493056  	-0.001191 
3890.421872  	-0.001654 
3892.350688  	-0.000749 
3894.279504  	-0.000760 
3896.208320  	-0.001309 
3898.137136  	-0.001445 
3900.065952  	-0.000954 
3901.994768  	-0.000627 
3903.923584  	-0.000269 
3905.852400  	-0.000162 
3907.781216  	-0.000909 
3909.710032  	-0.001407 
3911.638848  	-0.001326 
3913.567664  	-0.001203 
3915.496480  	-0.000852 
3917.425296  	-0.000100 
3919.354112  	-0.000266 
3921.282928  	-0.000593 
3923.211744  	-0.000669 
3925.140560  	-0.000342 
3927.069376  	-0.000784 
3928.998192  	-0.001152 
3930.927008  	-0.000561 
3932.855824  	0.000108 
3934.784640  	-0.000445 
3936.713456  	-0.000898 
3938.642272  	-0.000896 
3940.571088  	-0.001035 
3942.499904  	-0.000335 
3944.428720  	-0.000152 
3946.357536  	-0.000758 
3948.286352  	-0.000572 
3950.215168  	-0.000576 
3952.143984  	-0.000960 
3954.072800  	-0.001143 
3956.001616  	-0.001223 
3957.930432  	-0.000970 
3959.859248  	-0.000616 
3961.788064  	-0.000594 
3963.716880  	-0.000825 
3965.645696  	-0.001142 
3967.574512  	-0.001061 
3969.503328  	-0.001053 
3971.432144  	-0.001061 
3973.360960  	-0.000913 
3975.289776  	-0.000659 
3977.218592  	-0.000700 
3979.147408  	-0.000814 
3981.076224  	-0.000951 
3983.005040  	-0.001185 
3984.933856  	-0.001194 
3986.862672  	-0.001100 
3988.791488  	-0.001085 
3990.720304  	-0.000888 
3992.649120  	-0.000813 
3994.577936  	-0.001058 
3996.506752  	-0.001287 
3998.435568  	-0.001263 
4000.364384  	-0.001221 