##TITLE=No Description
##DATA TYPE=INFRARED SPECTRUM
##XUNITS=1/CM
##YUNITS=Abs
399.264912  	0.627883 
401.193728  	0.605247 
403.122544  	0.602614 
405.051360  	0.586658 
406.980176  	0.572778 
408.908992  	0.564529 
410.837808  	0.569564 
412.766624  	0.579915 
414.695440  	0.588229 
416.624256  	0.583196 
418.553072  	0.568438 
420.481888  	0.559473 
422.410704  	0.559465 
424.339520  	0.548962 
426.268336  	0.553126 
428.197152  	0.546539 
430.125968  	0.539688 
432.054784  	0.529422 
433.983600  	0.534790 
435.912416  	0.528392 
437.841232  	0.523254 
439.770048  	0.526140 
441.698864  	0.531425 
443.627680  	0.523350 
445.556496  	0.519989 
447.485312  	0.517442 
449.414128  	0.516935 
451.342944  	0.509745 
453.271760  	0.510955 
455.200576  	0.506556 
457.129392  	0.505764 
459.058208  	0.506040 
460.987024  	0.512830 
462.915840  	0.513645 
464.844656  	0.512268 
466.773472  	0.511804 
468.702288  	0.512769 
470.631104  	0.508150 
472.559920  	0.504347 
474.488736  	0.498231 
476.417552  	0.499875 
478.346368  	0.497578 
480.275184  	0.498743 
482.204000  	0.499127 
484.132816  	0.503132 
486.061632  	0.500180 
487.990448  	0.498874 
489.919264  	0.496640 
491.848080  	0.494132 
493.776896  	0.489404 
495.705712  	0.491760 
497.634528  	0.490425 
499.563344  	0.493346 
501.492160  	0.491484 
503.420976  	0.489816 
505.349792  	0.487589 
507.278608  	0.489636 
509.207424  	0.488960 
511.136240  	0.489424 
513.065056  	0.489101 
514.993872  	0.489308 
516.922688  	0.487094 
518.851504  	0.486708 
520.780320  	0.486547 
522.709136  	0.487473 
524.637952  	0.484280 
526.566768  	0.483870 
528.495584  	0.483408 
530.424400  	0.481033 
532.353216  	0.474153 
534.282032  	0.470016 
536.210848  	0.467435 
538.139664  	0.466665 
540.068480  	0.462528 
541.997296  	0.459354 
543.926112  	0.455412 
545.854928  	0.453327 
547.783744  	0.450095 
549.712560  	0.446249 
551.641376  	0.442342 
553.570192  	0.440857 
555.499008  	0.437287 
557.427824  	0.432921 
559.356640  	0.428751 
561.285456  	0.426374 
563.214272  	0.422435 
565.143088  	0.419395 
567.071904  	0.416040 
569.000720  	0.413492 
570.929536  	0.410503 
572.858352  	0.408114 
574.787168  	0.405723 
576.715984  	0.403255 
578.644800  	0.398725 
580.573616  	0.395945 
582.502432  	0.392453 
584.431248  	0.390350 
586.360064  	0.388079 
588.288880  	0.385891 
590.217696  	0.383074 
592.146512  	0.381495 
594.075328  	0.378873 
596.004144  	0.376264 
597.932960  	0.374724 
599.861776  	0.374256 
601.790592  	0.372449 
603.719408  	0.370548 
605.648224  	0.368614 
607.577040  	0.368155 
609.505856  	0.367057 
611.434672  	0.365912 
613.363488  	0.363996 
615.292304  	0.361960 
617.221120  	0.359576 
619.149936  	0.357984 
621.078752  	0.355493 
623.007568  	0.353373 
624.936384  	0.351499 
626.865200  	0.351083 
628.794016  	0.349971 
630.722832  	0.348935 
632.651648  	0.347315 
634.580464  	0.346378 
636.509280  	0.346219 
638.438096  	0.345430 
640.366912  	0.343666 
642.295728  	0.342206 
644.224544  	0.339602 
646.153360  	0.336708 
648.082176  	0.333892 
650.010992  	0.331193 
651.939808  	0.327641 
653.868624  	0.324201 
655.797440  	0.320373 
657.726256  	0.317063 
659.655072  	0.313782 
661.583888  	0.310934 
663.512704  	0.307659 
665.441520  	0.304529 
667.370336  	0.299515 
669.299152  	0.295349 
671.227968  	0.294322 
673.156784  	0.291771 
675.085600  	0.289109 
677.014416  	0.287411 
678.943232  	0.285884 
680.872048  	0.284353 
682.800864  	0.282667 
684.729680  	0.281228 
686.658496  	0.279408 
688.587312  	0.277754 
690.516128  	0.275360 
692.444944  	0.273990 
694.373760  	0.272942 
696.302576  	0.271552 
698.231392  	0.269449 
700.160208  	0.267009 
702.089024  	0.264394 
704.017840  	0.262586 
705.946656  	0.260063 
707.875472  	0.257334 
709.804288  	0.254959 
711.733104  	0.253304 
713.661920  	0.251845 
715.590736  	0.250665 
717.519552  	0.249976 
719.448368  	0.249894 
721.377184  	0.250184 
723.306000  	0.250516 
725.234816  	0.249833 
727.163632  	0.248641 
729.092448  	0.246654 
731.021264  	0.244125 
732.950080  	0.241391 
734.878896  	0.238942 
736.807712  	0.236383 
738.736528  	0.234202 
740.665344  	0.232572 
742.594160  	0.231167 
744.522976  	0.229380 
746.451792  	0.228068 
748.380608  	0.226825 
750.309424  	0.225722 
752.238240  	0.224761 
754.167056  	0.224250 
756.095872  	0.223126 
758.024688  	0.221646 
759.953504  	0.220607 
761.882320  	0.220352 
763.811136  	0.220293 
765.739952  	0.219659 
767.668768  	0.218152 
769.597584  	0.216465 
771.526400  	0.215680 
773.455216  	0.216563 
775.384032  	0.218124 
777.312848  	0.220403 
779.241664  	0.223093 
781.170480  	0.223588 
783.099296  	0.221054 
785.028112  	0.216558 
786.956928  	0.211230 
788.885744  	0.206590 
790.814560  	0.203144 
792.743376  	0.200867 
794.672192  	0.199096 
796.601008  	0.198161 
798.529824  	0.196249 
800.458640  	0.193183 
802.387456  	0.190064 
804.316272  	0.188347 
806.245088  	0.187499 
808.173904  	0.186555 
810.102720  	0.185943 
812.031536  	0.185830 
813.960352  	0.184998 
815.889168  	0.184384 
817.817984  	0.184043 
819.746800  	0.183438 
821.675616  	0.182787 
823.604432  	0.181958 
825.533248  	0.180926 
827.462064  	0.179789 
829.390880  	0.178458 
831.319696  	0.177004 
833.248512  	0.175326 
835.177328  	0.173444 
837.106144  	0.171267 
839.034960  	0.168533 
840.963776  	0.165934 
842.892592  	0.163575 
844.821408  	0.160973 
846.750224  	0.158357 
848.679040  	0.156082 
850.607856  	0.154128 
852.536672  	0.152509 
854.465488  	0.150783 
856.394304  	0.148942 
858.323120  	0.147329 
860.251936  	0.145628 
862.180752  	0.143456 
864.109568  	0.141589 
866.038384  	0.139760 
867.967200  	0.138198 
869.896016  	0.136746 
871.824832  	0.135402 
873.753648  	0.134665 
875.682464  	0.134532 
877.611280  	0.134260 
879.540096  	0.134067 
881.468912  	0.134770 
883.397728  	0.135037 
885.326544  	0.135074 
887.255360  	0.134714 
889.184176  	0.133635 
891.112992  	0.132014 
893.041808  	0.130579 
894.970624  	0.128865 
896.899440  	0.126510 
898.828256  	0.123534 
900.757072  	0.120663 
902.685888  	0.118561 
904.614704  	0.117455 
906.543520  	0.117329 
908.472336  	0.118088 
910.401152  	0.119549 
912.329968  	0.121626 
914.258784  	0.123901 
916.187600  	0.125983 
918.116416  	0.127540 
920.045232  	0.128177 
921.974048  	0.127756 
923.902864  	0.127040 
925.831680  	0.126135 
927.760496  	0.125026 
929.689312  	0.124092 
931.618128  	0.123754 
933.546944  	0.123546 
935.475760  	0.123231 
937.404576  	0.123228 
939.333392  	0.123671 
941.262208  	0.124360 
943.191024  	0.125819 
945.119840  	0.128514 
947.048656  	0.131965 
948.977472  	0.136252 
950.906288  	0.141207 
952.835104  	0.146580 
954.763920  	0.151827 
956.692736  	0.156693 
958.621552  	0.160773 
960.550368  	0.163381 
962.479184  	0.164242 
964.408000  	0.163028 
966.336816  	0.159878 
968.265632  	0.154635 
970.194448  	0.148064 
972.123264  	0.140553 
974.052080  	0.132442 
975.980896  	0.124489 
977.909712  	0.117255 
979.838528  	0.110927 
981.767344  	0.105539 
983.696160  	0.101685 
985.624976  	0.099541 
987.553792  	0.099002 
989.482608  	0.099998 
991.411424  	0.102411 
993.340240  	0.106144 
995.269056  	0.111030 
997.197872  	0.116177 
999.126688  	0.120947 
1001.055504  	0.125706 
1002.984320  	0.130582 
1004.913136  	0.135111 
1006.841952  	0.139053 
1008.770768  	0.142354 
1010.699584  	0.144749 
1012.628400  	0.146342 
1014.557216  	0.146939 
1016.486032  	0.147161 
1018.414848  	0.147048 
1020.343664  	0.147165 
1022.272480  	0.147205 
1024.201296  	0.146495 
1026.130112  	0.144017 
1028.058928  	0.143224 
1029.987744  	0.145417 
1031.916560  	0.146532 
1033.845376  	0.146967 
1035.774192  	0.146895 
1037.703008  	0.147639 
1039.631824  	0.150846 
1041.560640  	0.155020 
1043.489456  	0.160861 
1045.418272  	0.168326 
1047.347088  	0.177606 
1049.275904  	0.187703 
1051.204720  	0.198069 
1053.133536  	0.207503 
1055.062352  	0.214769 
1056.991168  	0.218965 
1058.919984  	0.223057 
1060.848800  	0.225758 
1062.777616  	0.225289 
1064.706432  	0.221013 
1066.635248  	0.217093 
1068.564064  	0.216453 
1070.492880  	0.214276 
1072.421696  	0.209321 
1074.350512  	0.204307 
1076.279328  	0.200662 
1078.208144  	0.198779 
1080.136960  	0.198342 
1082.065776  	0.198193 
1083.994592  	0.198122 
1085.923408  	0.198199 
1087.852224  	0.197419 
1089.781040  	0.196292 
1091.709856  	0.194454 
1093.638672  	0.190649 
1095.567488  	0.184774 
1097.496304  	0.178077 
1099.425120  	0.170698 
1101.353936  	0.162917 
1103.282752  	0.155049 
1105.211568  	0.147075 
1107.140384  	0.139135 
1109.069200  	0.131415 
1110.998016  	0.124292 
1112.926832  	0.117617 
1114.855648  	0.110966 
1116.784464  	0.104520 
1118.713280  	0.098747 
1120.642096  	0.093374 
1122.570912  	0.088184 
1124.499728  	0.083366 
1126.428544  	0.078705 
1128.357360  	0.074194 
1130.286176  	0.070322 
1132.214992  	0.067067 
1134.143808  	0.064265 
1136.072624  	0.061611 
1138.001440  	0.059194 
1139.930256  	0.056720 
1141.859072  	0.054561 
1143.787888  	0.052424 
1145.716704  	0.050538 
1147.645520  	0.048985 
1149.574336  	0.047649 
1151.503152  	0.046649 
1153.431968  	0.046250 
1155.360784  	0.046200 
1157.289600  	0.046544 
1159.218416  	0.047103 
1161.147232  	0.048124 
1163.076048  	0.049290 
1165.004864  	0.050641 
1166.933680  	0.051877 
1168.862496  	0.053486 
1170.791312  	0.055284 
1172.720128  	0.057076 
1174.648944  	0.058830 
1176.577760  	0.060903 
1178.506576  	0.062782 
1180.435392  	0.064473 
1182.364208  	0.066201 
1184.293024  	0.068243 
1186.221840  	0.070298 
1188.150656  	0.072553 
1190.079472  	0.075258 
1192.008288  	0.078529 
1193.937104  	0.082368 
1195.865920  	0.086672 
1197.794736  	0.091203 
1199.723552  	0.096281 
1201.652368  	0.101633 
1203.581184  	0.107179 
1205.510000  	0.112530 
1207.438816  	0.117943 
1209.367632  	0.123189 
1211.296448  	0.128177 
1213.225264  	0.132711 
1215.154080  	0.136831 
1217.082896  	0.140156 
1219.011712  	0.142667 
1220.940528  	0.144955 
1222.869344  	0.146853 
1224.798160  	0.148247 
1226.726976  	0.149201 
1228.655792  	0.149976 
1230.584608  	0.150396 
1232.513424  	0.150322 
1234.442240  	0.149411 
1236.371056  	0.147974 
1238.299872  	0.145645 
1240.228688  	0.141384 
1242.157504  	0.136737 
1244.086320  	0.132856 
1246.015136  	0.127588 
1247.943952  	0.121530 
1249.872768  	0.115565 
1251.801584  	0.110300 
1253.730400  	0.105097 
1255.659216  	0.099858 
1257.588032  	0.094738 
1259.516848  	0.090005 
1261.445664  	0.085675 
1263.374480  	0.081815 
1265.303296  	0.078358 
1267.232112  	0.075649 
1269.160928  	0.073628 
1271.089744  	0.072084 
1273.018560  	0.071296 
1274.947376  	0.070979 
1276.876192  	0.070637 
1278.805008  	0.069967 
1280.733824  	0.068638 
1282.662640  	0.066352 
1284.591456  	0.063399 
1286.520272  	0.060588 
1288.449088  	0.058246 
1290.377904  	0.056114 
1292.306720  	0.054496 
1294.235536  	0.052796 
1296.164352  	0.050522 
1298.093168  	0.047674 
1300.021984  	0.044730 
1301.950800  	0.041912 
1303.879616  	0.039652 
1305.808432  	0.037823 
1307.737248  	0.036325 
1309.666064  	0.034904 
1311.594880  	0.034286 
1313.523696  	0.034006 
1315.452512  	0.033767 
1317.381328  	0.033962 
1319.310144  	0.034329 
1321.238960  	0.034653 
1323.167776  	0.035186 
1325.096592  	0.035632 
1327.025408  	0.035772 
1328.954224  	0.035423 
1330.883040  	0.034852 
1332.811856  	0.034060 
1334.740672  	0.033631 
1336.669488  	0.033450 
1338.598304  	0.033599 
1340.527120  	0.032792 
1342.455936  	0.031370 
1344.384752  	0.030960 
1346.313568  	0.031384 
1348.242384  	0.032269 
1350.171200  	0.033533 
1352.100016  	0.034913 
1354.028832  	0.036401 
1355.957648  	0.038026 
1357.886464  	0.039629 
1359.815280  	0.041123 
1361.744096  	0.043000 
1363.672912  	0.044019 
1365.601728  	0.043715 
1367.530544  	0.043847 
1369.459360  	0.043759 
1371.388176  	0.042910 
1373.316992  	0.041865 
1375.245808  	0.039823 
1377.174624  	0.037691 
1379.103440  	0.035655 
1381.032256  	0.033693 
1382.961072  	0.032271 
1384.889888  	0.031889 
1386.818704  	0.032161 
1388.747520  	0.031308 
1390.676336  	0.029332 
1392.605152  	0.026818 
1394.533968  	0.026311 
1396.462784  	0.028830 
1398.391600  	0.029672 
1400.320416  	0.029156 
1402.249232  	0.028715 
1404.178048  	0.029526 
1406.106864  	0.030348 
1408.035680  	0.031512 
1409.964496  	0.033443 
1411.893312  	0.035802 
1413.822128  	0.038000 
1415.750944  	0.040662 
1417.679760  	0.042647 
1419.608576  	0.042803 
1421.537392  	0.042151 
1423.466208  	0.042105 
1425.395024  	0.040960 
1427.323840  	0.039514 
1429.252656  	0.038356 
1431.181472  	0.037455 
1433.110288  	0.037060 
1435.039104  	0.037401 
1436.967920  	0.037768 
1438.896736  	0.037647 
1440.825552  	0.037787 
1442.754368  	0.038233 
1444.683184  	0.038350 
1446.612000  	0.038618 
1448.540816  	0.038479 
1450.469632  	0.038346 
1452.398448  	0.038652 
1454.327264  	0.039165 
1456.256080  	0.040026 
1458.184896  	0.040357 
1460.113712  	0.040164 
1462.042528  	0.040215 
1463.971344  	0.040505 
1465.900160  	0.042032 
1467.828976  	0.043779 
1469.757792  	0.045840 
1471.686608  	0.048809 
1473.615424  	0.053206 
1475.544240  	0.056104 
1477.473056  	0.057965 
1479.401872  	0.058745 
1481.330688  	0.059494 
1483.259504  	0.059547 
1485.188320  	0.059334 
1487.117136  	0.058618 
1489.045952  	0.057766 
1490.974768  	0.054939 
1492.903584  	0.051778 
1494.832400  	0.049140 
1496.761216  	0.046070 
1498.690032  	0.043115 
1500.618848  	0.041177 
1502.547664  	0.039221 
1504.476480  	0.037090 
1506.405296  	0.036515 
1508.334112  	0.037387 
1510.262928  	0.035759 
1512.191744  	0.033980 
1514.120560  	0.033036 
1516.049376  	0.033332 
1517.978192  	0.033219 
1519.907008  	0.033612 
1521.835824  	0.035105 
1523.764640  	0.037197 
1525.693456  	0.039678 
1527.622272  	0.041383 
1529.551088  	0.041989 
1531.479904  	0.042425 
1533.408720  	0.042049 
1535.337536  	0.040840 
1537.266352  	0.038934 
1539.195168  	0.035768 
1541.123984  	0.033875 
1543.052800  	0.034569 
1544.981616  	0.034061 
1546.910432  	0.032480 
1548.839248  	0.032132 
1550.768064  	0.032428 
1552.696880  	0.031866 
1554.625696  	0.032316 
1556.554512  	0.031970 
1558.483328  	0.032211 
1560.412144  	0.035775 
1562.340960  	0.038026 
1564.269776  	0.039777 
1566.198592  	0.042795 
1568.127408  	0.045352 
1570.056224  	0.049459 
1571.985040  	0.053120 
1573.913856  	0.054978 
1575.842672  	0.055942 
1577.771488  	0.057999 
1579.700304  	0.058404 
1581.629120  	0.058379 
1583.557936  	0.058443 
1585.486752  	0.059515 
1587.415568  	0.061513 
1589.344384  	0.064817 
1591.273200  	0.068648 
1593.202016  	0.073109 
1595.130832  	0.077484 
1597.059648  	0.081911 
1598.988464  	0.085235 
1600.917280  	0.087963 
1602.846096  	0.089462 
1604.774912  	0.090325 
1606.703728  	0.090115 
1608.632544  	0.089713 
1610.561360  	0.088869 
1612.490176  	0.088444 
1614.418992  	0.087855 
1616.347808  	0.088183 
1618.276624  	0.090587 
1620.205440  	0.093836 
1622.134256  	0.096802 
1624.063072  	0.102170 
1625.991888  	0.107277 
1627.920704  	0.113127 
1629.849520  	0.119600 
1631.778336  	0.125356 
1633.707152  	0.129625 
1635.635968  	0.135788 
1637.564784  	0.142586 
1639.493600  	0.146780 
1641.422416  	0.149959 
1643.351232  	0.152461 
1645.280048  	0.153455 
1647.208864  	0.154901 
1649.137680  	0.155646 
1651.066496  	0.154926 
1652.995312  	0.152590 
1654.924128  	0.153766 
1656.852944  	0.153011 
1658.781760  	0.151719 
1660.710576  	0.150290 
1662.639392  	0.148829 
1664.568208  	0.147610 
1666.497024  	0.146729 
1668.425840  	0.145100 
1670.354656  	0.143813 
1672.283472  	0.143218 
1674.212288  	0.142589 
1676.141104  	0.142355 
1678.069920  	0.143092 
1679.998736  	0.143827 
1681.927552  	0.143885 
1683.856368  	0.143013 
1685.785184  	0.144000 
1687.714000  	0.144183 
1689.642816  	0.143320 
1691.571632  	0.141677 
1693.500448  	0.140022 
1695.429264  	0.136986 
1697.358080  	0.134400 
1699.286896  	0.131273 
1701.215712  	0.127030 
1703.144528  	0.124239 
1705.073344  	0.119996 
1707.002160  	0.115258 
1708.930976  	0.111244 
1710.859792  	0.106780 
1712.788608  	0.101954 
1714.717424  	0.096820 
1716.646240  	0.090620 
1718.575056  	0.083582 
1720.503872  	0.077761 
1722.432688  	0.072753 
1724.361504  	0.066746 
1726.290320  	0.061199 
1728.219136  	0.056422 
1730.147952  	0.052109 
1732.076768  	0.047651 
1734.005584  	0.042496 
1735.934400  	0.037350 
1737.863216  	0.034430 
1739.792032  	0.030356 
1741.720848  	0.027742 
1743.649664  	0.025524 
1745.578480  	0.022994 
1747.507296  	0.020628 
1749.436112  	0.019423 
1751.364928  	0.018147 
1753.293744  	0.016575 
1755.222560  	0.015157 
1757.151376  	0.014516 
1759.080192  	0.013443 
1761.009008  	0.012934 
1762.937824  	0.012172 
1764.866640  	0.011678 
1766.795456  	0.011491 
1768.724272  	0.011600 
1770.653088  	0.010197 
1772.581904  	0.009585 
1774.510720  	0.009902 
1776.439536  	0.010137 
1778.368352  	0.009872 
1780.297168  	0.009963 
1782.225984  	0.009520 
1784.154800  	0.009443 
1786.083616  	0.009209 
1788.012432  	0.009015 
1789.941248  	0.008871 
1791.870064  	0.008925 
1793.798880  	0.008602 
1795.727696  	0.008825 
1797.656512  	0.008302 
1799.585328  	0.008312 
1801.514144  	0.008671 
1803.442960  	0.008214 
1805.371776  	0.007431 
1807.300592  	0.007479 
1809.229408  	0.007268 
1811.158224  	0.007355 
1813.087040  	0.006952 
1815.015856  	0.006649 
1816.944672  	0.006644 
1818.873488  	0.007006 
1820.802304  	0.007076 
1822.731120  	0.007322 
1824.659936  	0.007487 
1826.588752  	0.007334 
1828.517568  	0.006677 
1830.446384  	0.007037 
1832.375200  	0.007056 
1834.304016  	0.006880 
1836.232832  	0.006787 
1838.161648  	0.007162 
1840.090464  	0.006848 
1842.019280  	0.006828 
1843.948096  	0.006705 
1845.876912  	0.007095 
1847.805728  	0.007134 
1849.734544  	0.006945 
1851.663360  	0.006519 
1853.592176  	0.006655 
1855.520992  	0.006516 
1857.449808  	0.006922 
1859.378624  	0.006800 
1861.307440  	0.006689 
1863.236256  	0.006423 
1865.165072  	0.006466 
1867.093888  	0.006747 
1869.022704  	0.007449 
1870.951520  	0.007088 
1872.880336  	0.006810 
1874.809152  	0.006371 
1876.737968  	0.006441 
1878.666784  	0.006196 
1880.595600  	0.006348 
1882.524416  	0.006385 
1884.453232  	0.006281 
1886.382048  	0.005834 
1888.310864  	0.006103 
1890.239680  	0.006681 
1892.168496  	0.006668 
1894.097312  	0.006047 
1896.026128  	0.006075 
1897.954944  	0.005712 
1899.883760  	0.005882 
1901.812576  	0.005928 
1903.741392  	0.006134 
1905.670208  	0.006167 
1907.599024  	0.006336 
1909.527840  	0.005984 
1911.456656  	0.006110 
1913.385472  	0.006168 
1915.314288  	0.006538 
1917.243104  	0.006530 
1919.171920  	0.006338 
1921.100736  	0.006395 
1923.029552  	0.007056 
1924.958368  	0.006168 
1926.887184  	0.005885 
1928.816000  	0.005512 
1930.744816  	0.005178 
1932.673632  	0.004797 
1934.602448  	0.005397 
1936.531264  	0.006184 
1938.460080  	0.006057 
1940.388896  	0.005456 
1942.317712  	0.006136 
1944.246528  	0.005981 
1946.175344  	0.006051 
1948.104160  	0.004820 
1950.032976  	0.004716 
1951.961792  	0.005137 
1953.890608  	0.006074 
1955.819424  	0.005688 
1957.748240  	0.005936 
1959.677056  	0.006038 
1961.605872  	0.005409 
1963.534688  	0.004491 
1965.463504  	0.005687 
1967.392320  	0.005279 
1969.321136  	0.004822 
1971.249952  	0.005357 
1973.178768  	0.006566 
1975.107584  	0.005443 
1977.036400  	0.005246 
1978.965216  	0.006227 
1980.894032  	0.006224 
1982.822848  	0.005065 
1984.751664  	0.005762 
1986.680480  	0.006479 
1988.609296  	0.006919 
1990.538112  	0.006280 
1992.466928  	0.006292 
1994.395744  	0.005929 
1996.324560  	0.005768 
1998.253376  	0.004958 
2000.182192  	0.004816 
2002.111008  	0.004854 
2004.039824  	0.005219 
2005.968640  	0.004260 
2007.897456  	0.005530 
2009.826272  	0.006107 
2011.755088  	0.004903 
2013.683904  	0.005301 
2015.612720  	0.006551 
2017.541536  	0.005541 
2019.470352  	0.005713 
2021.399168  	0.005519 
2023.327984  	0.006124 
2025.256800  	0.006049 
2027.185616  	0.006003 
2029.114432  	0.005286 
2031.043248  	0.006454 
2032.972064  	0.005876 
2034.900880  	0.006267 
2036.829696  	0.006034 
2038.758512  	0.005829 
2040.687328  	0.005819 
2042.616144  	0.005575 
2044.544960  	0.005649 
2046.473776  	0.006568 
2048.402592  	0.006829 
2050.331408  	0.007448 
2052.260224  	0.006315 
2054.189040  	0.006062 
2056.117856  	0.005825 
2058.046672  	0.005997 
2059.975488  	0.005888 
2061.904304  	0.006001 
2063.833120  	0.006588 
2065.761936  	0.006981 
2067.690752  	0.006191 
2069.619568  	0.005531 
2071.548384  	0.004571 
2073.477200  	0.004741 
2075.406016  	0.005726 
2077.334832  	0.006218 
2079.263648  	0.005404 
2081.192464  	0.005652 
2083.121280  	0.006357 
2085.050096  	0.006277 
2086.978912  	0.005722 
2088.907728  	0.005802 
2090.836544  	0.005473 
2092.765360  	0.005355 
2094.694176  	0.005556 
2096.622992  	0.005745 
2098.551808  	0.005339 
2100.480624  	0.005527 
2102.409440  	0.005744 
2104.338256  	0.006182 
2106.267072  	0.005967 
2108.195888  	0.005952 
2110.124704  	0.006218 
2112.053520  	0.006425 
2113.982336  	0.006057 
2115.911152  	0.006119 
2117.839968  	0.005562 
2119.768784  	0.004960 
2121.697600  	0.004897 
2123.626416  	0.004983 
2125.555232  	0.004790 
2127.484048  	0.005344 
2129.412864  	0.005057 
2131.341680  	0.004245 
2133.270496  	0.004324 
2135.199312  	0.005046 
2137.128128  	0.005588 
2139.056944  	0.005594 
2140.985760  	0.004495 
2142.914576  	0.004813 
2144.843392  	0.004779 
2146.772208  	0.005186 
2148.701024  	0.005153 
2150.629840  	0.004983 
2152.558656  	0.003434 
2154.487472  	0.002692 
2156.416288  	0.002452 
2158.345104  	0.004421 
2160.273920  	0.007034 
2162.202736  	0.008892 
2164.131552  	0.008625 
2166.060368  	0.009045 
2167.989184  	0.007399 
2169.918000  	0.006552 
2171.846816  	0.006541 
2173.775632  	0.006238 
2175.704448  	0.006360 
2177.633264  	0.007545 
2179.562080  	0.007873 
2181.490896  	0.007070 
2183.419712  	0.005808 
2185.348528  	0.006027 
2187.277344  	0.006267 
2189.206160  	0.007036 
2191.134976  	0.007360 
2193.063792  	0.008149 
2194.992608  	0.008191 
2196.921424  	0.006923 
2198.850240  	0.006753 
2200.779056  	0.007450 
2202.707872  	0.007095 
2204.636688  	0.007102 
2206.565504  	0.007736 
2208.494320  	0.008182 
2210.423136  	0.006709 
2212.351952  	0.006567 
2214.280768  	0.007251 
2216.209584  	0.007050 
2218.138400  	0.006448 
2220.067216  	0.006421 
2221.996032  	0.006535 
2223.924848  	0.006153 
2225.853664  	0.006132 
2227.782480  	0.006663 
2229.711296  	0.006840 
2231.640112  	0.006824 
2233.568928  	0.006320 
2235.497744  	0.006216 
2237.426560  	0.006022 
2239.355376  	0.006112 
2241.284192  	0.005859 
2243.213008  	0.006128 
2245.141824  	0.006388 
2247.070640  	0.005763 
2248.999456  	0.005410 
2250.928272  	0.006068 
2252.857088  	0.006049 
2254.785904  	0.005894 
2256.714720  	0.006383 
2258.643536  	0.006731 
2260.572352  	0.006302 
2262.501168  	0.006392 
2264.429984  	0.006287 
2266.358800  	0.006286 
2268.287616  	0.006005 
2270.216432  	0.005919 
2272.145248  	0.005741 
2274.074064  	0.006148 
2276.002880  	0.006358 
2277.931696  	0.006918 
2279.860512  	0.007442 
2281.789328  	0.007419 
2283.718144  	0.007354 
2285.646960  	0.007459 
2287.575776  	0.007577 
2289.504592  	0.007375 
2291.433408  	0.006789 
2293.362224  	0.006668 
2295.291040  	0.006869 
2297.219856  	0.007014 
2299.148672  	0.007056 
2301.077488  	0.006991 
2303.006304  	0.006885 
2304.935120  	0.006653 
2306.863936  	0.006299 
2308.792752  	0.006233 
2310.721568  	0.006175 
2312.650384  	0.005874 
2314.579200  	0.005148 
2316.508016  	0.004640 
2318.436832  	0.003737 
2320.365648  	0.002681 
2322.294464  	0.001782 
2324.223280  	0.000569 
2326.152096  	-0.001374 
2328.080912  	-0.002890 
2330.009728  	-0.003837 
2331.938544  	-0.004681 
2333.867360  	-0.005958 
2335.796176  	-0.006975 
2337.724992  	-0.007805 
2339.653808  	-0.008161 
2341.582624  	-0.007910 
2343.511440  	-0.006227 
2345.440256  	-0.003778 
2347.369072  	-0.000661 
2349.297888  	0.000198 
2351.226704  	-0.002384 
2353.155520  	-0.006274 
2355.084336  	-0.009561 
2357.013152  	-0.011670 
2358.941968  	-0.012755 
2360.870784  	-0.013622 
2362.799600  	-0.012611 
2364.728416  	-0.010994 
2366.657232  	-0.008925 
2368.586048  	-0.006810 
2370.514864  	-0.004345 
2372.443680  	-0.001916 
2374.372496  	0.000762 
2376.301312  	0.003131 
2378.230128  	0.005128 
2380.158944  	0.006043 
2382.087760  	0.006448 
2384.016576  	0.006751 
2385.945392  	0.006916 
2387.874208  	0.006651 
2389.803024  	0.006499 
2391.731840  	0.006334 
2393.660656  	0.006325 
2395.589472  	0.006443 
2397.518288  	0.006540 
2399.447104  	0.006389 
2401.375920  	0.006274 
2403.304736  	0.006326 
2405.233552  	0.006472 
2407.162368  	0.006623 
2409.091184  	0.006620 
2411.020000  	0.006609 
2412.948816  	0.006753 
2414.877632  	0.006707 
2416.806448  	0.006835 
2418.735264  	0.007008 
2420.664080  	0.006850 
2422.592896  	0.006605 
2424.521712  	0.006638 
2426.450528  	0.006702 
2428.379344  	0.006709 
2430.308160  	0.006779 
2432.236976  	0.006998 
2434.165792  	0.007396 
2436.094608  	0.007796 
2438.023424  	0.007802 
2439.952240  	0.007696 
2441.881056  	0.007667 
2443.809872  	0.007673 
2445.738688  	0.007658 
2447.667504  	0.007647 
2449.596320  	0.007615 
2451.525136  	0.007769 
2453.453952  	0.007941 
2455.382768  	0.008015 
2457.311584  	0.008065 
2459.240400  	0.008123 
2461.169216  	0.008026 
2463.098032  	0.007961 
2465.026848  	0.008020 
2466.955664  	0.007943 
2468.884480  	0.007669 
2470.813296  	0.007789 
2472.742112  	0.007868 
2474.670928  	0.007866 
2476.599744  	0.007921 
2478.528560  	0.007950 
2480.457376  	0.008160 
2482.386192  	0.008333 
2484.315008  	0.008346 
2486.243824  	0.008353 
2488.172640  	0.008198 
2490.101456  	0.008201 
2492.030272  	0.008347 
2493.959088  	0.008242 
2495.887904  	0.008051 
2497.816720  	0.008144 
2499.745536  	0.008252 
2501.674352  	0.008544 
2503.603168  	0.008637 
2505.531984  	0.008599 
2507.460800  	0.008482 
2509.389616  	0.008364 
2511.318432  	0.008198 
2513.247248  	0.008436 
2515.176064  	0.008672 
2517.104880  	0.008879 
2519.033696  	0.009059 
2520.962512  	0.009081 
2522.891328  	0.009043 
2524.820144  	0.009061 
2526.748960  	0.009086 
2528.677776  	0.009237 
2530.606592  	0.009240 
2532.535408  	0.009213 
2534.464224  	0.009396 
2536.393040  	0.009503 
2538.321856  	0.009225 
2540.250672  	0.009303 
2542.179488  	0.009489 
2544.108304  	0.009655 
2546.037120  	0.009569 
2547.965936  	0.009872 
2549.894752  	0.010182 
2551.823568  	0.010197 
2553.752384  	0.010236 
2555.681200  	0.010275 
2557.610016  	0.010119 
2559.538832  	0.010067 
2561.467648  	0.010180 
2563.396464  	0.010569 
2565.325280  	0.010768 
2567.254096  	0.010732 
2569.182912  	0.010586 
2571.111728  	0.010417 
2573.040544  	0.010216 
2574.969360  	0.010277 
2576.898176  	0.010425 
2578.826992  	0.010609 
2580.755808  	0.010689 
2582.684624  	0.010747 
2584.613440  	0.010685 
2586.542256  	0.010833 
2588.471072  	0.010907 
2590.399888  	0.010927 
2592.328704  	0.011078 
2594.257520  	0.011239 
2596.186336  	0.011504 
2598.115152  	0.011669 
2600.043968  	0.011432 
2601.972784  	0.011308 
2603.901600  	0.011411 
2605.830416  	0.011609 
2607.759232  	0.011656 
2609.688048  	0.011813 
2611.616864  	0.011945 
2613.545680  	0.011997 
2615.474496  	0.011996 
2617.403312  	0.012047 
2619.332128  	0.012305 
2621.260944  	0.012445 
2623.189760  	0.012390 
2625.118576  	0.012481 
2627.047392  	0.012620 
2628.976208  	0.012914 
2630.905024  	0.013026 
2632.833840  	0.013104 
2634.762656  	0.013177 
2636.691472  	0.013179 
2638.620288  	0.013169 
2640.549104  	0.013244 
2642.477920  	0.013211 
2644.406736  	0.013252 
2646.335552  	0.013572 
2648.264368  	0.013875 
2650.193184  	0.013939 
2652.122000  	0.014048 
2654.050816  	0.014161 
2655.979632  	0.014015 
2657.908448  	0.014072 
2659.837264  	0.014229 
2661.766080  	0.014193 
2663.694896  	0.014178 
2665.623712  	0.014170 
2667.552528  	0.014109 
2669.481344  	0.014222 
2671.410160  	0.014490 
2673.338976  	0.014621 
2675.267792  	0.014734 
2677.196608  	0.014836 
2679.125424  	0.014992 
2681.054240  	0.014912 
2682.983056  	0.014877 
2684.911872  	0.015080 
2686.840688  	0.015219 
2688.769504  	0.015356 
2690.698320  	0.015492 
2692.627136  	0.015585 
2694.555952  	0.015670 
2696.484768  	0.015589 
2698.413584  	0.015577 
2700.342400  	0.015634 
2702.271216  	0.015838 
2704.200032  	0.016016 
2706.128848  	0.016145 
2708.057664  	0.016177 
2709.986480  	0.016159 
2711.915296  	0.016178 
2713.844112  	0.016242 
2715.772928  	0.016450 
2717.701744  	0.016603 
2719.630560  	0.016617 
2721.559376  	0.016687 
2723.488192  	0.016759 
2725.417008  	0.016984 
2727.345824  	0.017113 
2729.274640  	0.017022 
2731.203456  	0.017033 
2733.132272  	0.017189 
2735.061088  	0.017384 
2736.989904  	0.017488 
2738.918720  	0.017474 
2740.847536  	0.017365 
2742.776352  	0.017499 
2744.705168  	0.017680 
2746.633984  	0.017634 
2748.562800  	0.017662 
2750.491616  	0.017772 
2752.420432  	0.017848 
2754.349248  	0.017896 
2756.278064  	0.017953 
2758.206880  	0.017930 
2760.135696  	0.018006 
2762.064512  	0.017987 
2763.993328  	0.018003 
2765.922144  	0.018075 
2767.850960  	0.018076 
2769.779776  	0.018073 
2771.708592  	0.018144 
2773.637408  	0.018226 
2775.566224  	0.018212 
2777.495040  	0.018158 
2779.423856  	0.018263 
2781.352672  	0.018331 
2783.281488  	0.018384 
2785.210304  	0.018452 
2787.139120  	0.018560 
2789.067936  	0.018617 
2790.996752  	0.018605 
2792.925568  	0.018696 
2794.854384  	0.018787 
2796.783200  	0.018786 
2798.712016  	0.018672 
2800.640832  	0.018683 
2802.569648  	0.018783 
2804.498464  	0.018855 
2806.427280  	0.018963 
2808.356096  	0.019132 
2810.284912  	0.019274 
2812.213728  	0.019250 
2814.142544  	0.019179 
2816.071360  	0.019197 
2818.000176  	0.019112 
2819.928992  	0.018976 
2821.857808  	0.018962 
2823.786624  	0.018940 
2825.715440  	0.018914 
2827.644256  	0.018775 
2829.573072  	0.018685 
2831.501888  	0.018517 
2833.430704  	0.018341 
2835.359520  	0.018199 
2837.288336  	0.018003 
2839.217152  	0.017813 
2841.145968  	0.017561 
2843.074784  	0.017377 
2845.003600  	0.017281 
2846.932416  	0.017244 
2848.861232  	0.017206 
2850.790048  	0.016941 
2852.718864  	0.016477 
2854.647680  	0.015890 
2856.576496  	0.015283 
2858.505312  	0.014755 
2860.434128  	0.014263 
2862.362944  	0.013606 
2864.291760  	0.012885 
2866.220576  	0.012217 
2868.149392  	0.011975 
2870.078208  	0.011999 
2872.007024  	0.012039 
2873.935840  	0.012062 
2875.864656  	0.012131 
2877.793472  	0.012240 
2879.722288  	0.012106 
2881.651104  	0.011574 
2883.579920  	0.011145 
2885.508736  	0.011211 
2887.437552  	0.011550 
2889.366368  	0.011616 
2891.295184  	0.011431 
2893.224000  	0.011244 
2895.152816  	0.011266 
2897.081632  	0.010965 
2899.010448  	0.009661 
2900.939264  	0.008675 
2902.868080  	0.009748 
2904.796896  	0.010853 
2906.725712  	0.011388 
2908.654528  	0.011747 
2910.583344  	0.012187 
2912.512160  	0.013106 
2914.440976  	0.014328 
2916.369792  	0.015290 
2918.298608  	0.015734 
2920.227424  	0.016024 
2922.156240  	0.016484 
2924.085056  	0.017078 
2926.013872  	0.017804 
2927.942688  	0.018591 
2929.871504  	0.019268 
2931.800320  	0.019786 
2933.729136  	0.020112 
2935.657952  	0.020347 
2937.586768  	0.020742 
2939.515584  	0.020886 
2941.444400  	0.020951 
2943.373216  	0.021039 
2945.302032  	0.021044 
2947.230848  	0.020969 
2949.159664  	0.020626 
2951.088480  	0.020170 
2953.017296  	0.019801 
2954.946112  	0.019199 
2956.874928  	0.018418 
2958.803744  	0.017746 
2960.732560  	0.017147 
2962.661376  	0.016574 
2964.590192  	0.015740 
2966.519008  	0.014869 
2968.447824  	0.013871 
2970.376640  	0.013210 
2972.305456  	0.012803 
2974.234272  	0.012703 
2976.163088  	0.012645 
2978.091904  	0.012725 
2980.020720  	0.012629 
2981.949536  	0.012604 
2983.878352  	0.012314 
2985.807168  	0.011449 
2987.735984  	0.010922 
2989.664800  	0.011393 
2991.593616  	0.013825 
2993.522432  	0.015257 
2995.451248  	0.015583 
2997.380064  	0.016229 
2999.308880  	0.017127 
3001.237696  	0.018091 
3003.166512  	0.019072 
3005.095328  	0.020040 
3007.024144  	0.021227 
3008.952960  	0.022378 
3010.881776  	0.023553 
3012.810592  	0.024631 
3014.739408  	0.025503 
3016.668224  	0.026485 
3018.597040  	0.027299 
3020.525856  	0.028113 
3022.454672  	0.028895 
3024.383488  	0.029691 
3026.312304  	0.030454 
3028.241120  	0.031060 
3030.169936  	0.031470 
3032.098752  	0.032129 
3034.027568  	0.032564 
3035.956384  	0.032888 
3037.885200  	0.033405 
3039.814016  	0.033956 
3041.742832  	0.034607 
3043.671648  	0.035055 
3045.600464  	0.035356 
3047.529280  	0.035597 
3049.458096  	0.035787 
3051.386912  	0.035906 
3053.315728  	0.036223 
3055.244544  	0.036731 
3057.173360  	0.037293 
3059.102176  	0.037637 
3061.030992  	0.037833 
3062.959808  	0.038151 
3064.888624  	0.038457 
3066.817440  	0.038965 
3068.746256  	0.039307 
3070.675072  	0.039497 
3072.603888  	0.039935 
3074.532704  	0.040305 
3076.461520  	0.040626 
3078.390336  	0.040925 
3080.319152  	0.041315 
3082.247968  	0.041762 
3084.176784  	0.042149 
3086.105600  	0.042356 
3088.034416  	0.042672 
3089.963232  	0.043216 
3091.892048  	0.043588 
3093.820864  	0.043794 
3095.749680  	0.044098 
3097.678496  	0.044283 
3099.607312  	0.044560 
3101.536128  	0.044927 
3103.464944  	0.045205 
3105.393760  	0.045501 
3107.322576  	0.045906 
3109.251392  	0.046328 
3111.180208  	0.046664 
3113.109024  	0.046827 
3115.037840  	0.047104 
3116.966656  	0.047469 
3118.895472  	0.047761 
3120.824288  	0.047984 
3122.753104  	0.048288 
3124.681920  	0.048607 
3126.610736  	0.048749 
3128.539552  	0.048931 
3130.468368  	0.049078 
3132.397184  	0.049271 
3134.326000  	0.049343 
3136.254816  	0.049400 
3138.183632  	0.049699 
3140.112448  	0.049893 
3142.041264  	0.050094 
3143.970080  	0.050584 
3145.898896  	0.050831 
3147.827712  	0.050925 
3149.756528  	0.051154 
3151.685344  	0.051570 
3153.614160  	0.052077 
3155.542976  	0.052136 
3157.471792  	0.052177 
3159.400608  	0.052658 
3161.329424  	0.053126 
3163.258240  	0.053449 
3165.187056  	0.053717 
3167.115872  	0.053954 
3169.044688  	0.054075 
3170.973504  	0.054067 
3172.902320  	0.054262 
3174.831136  	0.054463 
3176.759952  	0.054661 
3178.688768  	0.054991 
3180.617584  	0.055108 
3182.546400  	0.054937 
3184.475216  	0.055196 
3186.404032  	0.055365 
3188.332848  	0.055275 
3190.261664  	0.055459 
3192.190480  	0.055562 
3194.119296  	0.055347 
3196.048112  	0.055309 
3197.976928  	0.055579 
3199.905744  	0.055660 
3201.834560  	0.055571 
3203.763376  	0.055656 
3205.692192  	0.055813 
3207.621008  	0.055626 
3209.549824  	0.055239 
3211.478640  	0.055070 
3213.407456  	0.054985 
3215.336272  	0.055027 
3217.265088  	0.055013 
3219.193904  	0.054761 
3221.122720  	0.054384 
3223.051536  	0.054230 
3224.980352  	0.054100 
3226.909168  	0.053899 
3228.837984  	0.053721 
3230.766800  	0.053735 
3232.695616  	0.053860 
3234.624432  	0.053810 
3236.553248  	0.053621 
3238.482064  	0.053494 
3240.410880  	0.053506 
3242.339696  	0.053420 
3244.268512  	0.053291 
3246.197328  	0.053357 
3248.126144  	0.053262 
3250.054960  	0.053338 
3251.983776  	0.053314 
3253.912592  	0.053320 
3255.841408  	0.053440 
3257.770224  	0.053501 
3259.699040  	0.053714 
3261.627856  	0.053917 
3263.556672  	0.053959 
3265.485488  	0.053973 
3267.414304  	0.054124 
3269.343120  	0.054260 
3271.271936  	0.054356 
3273.200752  	0.054577 
3275.129568  	0.054811 
3277.058384  	0.054870 
3278.987200  	0.054946 
3280.916016  	0.055037 
3282.844832  	0.055186 
3284.773648  	0.055290 
3286.702464  	0.055457 
3288.631280  	0.055757 
3290.560096  	0.055860 
3292.488912  	0.056032 
3294.417728  	0.056055 
3296.346544  	0.056112 
3298.275360  	0.056408 
3300.204176  	0.056736 
3302.132992  	0.056824 
3304.061808  	0.057075 
3305.990624  	0.057527 
3307.919440  	0.057718 
3309.848256  	0.057666 
3311.777072  	0.057597 
3313.705888  	0.057785 
3315.634704  	0.058281 
3317.563520  	0.058708 
3319.492336  	0.058921 
3321.421152  	0.058887 
3323.349968  	0.058848 
3325.278784  	0.059056 
3327.207600  	0.059335 
3329.136416  	0.059332 
3331.065232  	0.059190 
3332.994048  	0.059325 
3334.922864  	0.059507 
3336.851680  	0.059432 
3338.780496  	0.059336 
3340.709312  	0.059361 
3342.638128  	0.059354 
3344.566944  	0.059112 
3346.495760  	0.058923 
3348.424576  	0.058791 
3350.353392  	0.058637 
3352.282208  	0.058431 
3354.211024  	0.058258 
3356.139840  	0.058054 
3358.068656  	0.057625 
3359.997472  	0.057360 
3361.926288  	0.057330 
3363.855104  	0.057136 
3365.783920  	0.056862 
3367.712736  	0.056587 
3369.641552  	0.056116 
3371.570368  	0.055670 
3373.499184  	0.055460 
3375.428000  	0.055175 
3377.356816  	0.054826 
3379.285632  	0.054664 
3381.214448  	0.054553 
3383.143264  	0.054426 
3385.072080  	0.054357 
3387.000896  	0.053975 
3388.929712  	0.053629 
3390.858528  	0.053490 
3392.787344  	0.053207 
3394.716160  	0.052644 
3396.644976  	0.052251 
3398.573792  	0.051971 
3400.502608  	0.051603 
3402.431424  	0.051249 
3404.360240  	0.050952 
3406.289056  	0.050593 
3408.217872  	0.050135 
3410.146688  	0.049781 
3412.075504  	0.049880 
3414.004320  	0.049943 
3415.933136  	0.049454 
3417.861952  	0.048856 
3419.790768  	0.048653 
3421.719584  	0.048408 
3423.648400  	0.047965 
3425.577216  	0.047731 
3427.506032  	0.047477 
3429.434848  	0.046942 
3431.363664  	0.046510 
3433.292480  	0.046319 
3435.221296  	0.046196 
3437.150112  	0.045833 
3439.078928  	0.045464 
3441.007744  	0.045213 
3442.936560  	0.045182 
3444.865376  	0.044722 
3446.794192  	0.044094 
3448.723008  	0.043647 
3450.651824  	0.043056 
3452.580640  	0.042526 
3454.509456  	0.042230 
3456.438272  	0.041912 
3458.367088  	0.041596 
3460.295904  	0.041299 
3462.224720  	0.040825 
3464.153536  	0.040347 
3466.082352  	0.040052 
3468.011168  	0.039657 
3469.939984  	0.039252 
3471.868800  	0.038706 
3473.797616  	0.038294 
3475.726432  	0.037773 
3477.655248  	0.037315 
3479.584064  	0.037018 
3481.512880  	0.036700 
3483.441696  	0.036159 
3485.370512  	0.035305 
3487.299328  	0.034855 
3489.228144  	0.034519 
3491.156960  	0.033912 
3493.085776  	0.033555 
3495.014592  	0.033265 
3496.943408  	0.032937 
3498.872224  	0.032419 
3500.801040  	0.032411 
3502.729856  	0.032249 
3504.658672  	0.031570 
3506.587488  	0.030774 
3508.516304  	0.030487 
3510.445120  	0.030359 
3512.373936  	0.029891 
3514.302752  	0.029400 
3516.231568  	0.028997 
3518.160384  	0.028565 
3520.089200  	0.028257 
3522.018016  	0.028287 
3523.946832  	0.028575 
3525.875648  	0.028275 
3527.804464  	0.027523 
3529.733280  	0.026834 
3531.662096  	0.026359 
3533.590912  	0.025892 
3535.519728  	0.025844 
3537.448544  	0.025779 
3539.377360  	0.025075 
3541.306176  	0.024627 
3543.234992  	0.024679 
3545.163808  	0.025317 
3547.092624  	0.024927 
3549.021440  	0.023438 
3550.950256  	0.022861 
3552.879072  	0.023175 
3554.807888  	0.022818 
3556.736704  	0.022121 
3558.665520  	0.021922 
3560.594336  	0.022017 
3562.523152  	0.021670 
3564.451968  	0.021564 
3566.380784  	0.022140 
3568.309600  	0.021964 
3570.238416  	0.020424 
3572.167232  	0.019367 
3574.096048  	0.018773 
3576.024864  	0.018284 
3577.953680  	0.017921 
3579.882496  	0.017771 
3581.811312  	0.017513 
3583.740128  	0.016970 
3585.668944  	0.016869 
3587.597760  	0.017534 
3589.526576  	0.016756 
3591.455392  	0.014996 
3593.384208  	0.014651 
3595.313024  	0.014635 
3597.241840  	0.013990 
3599.170656  	0.013086 
3601.099472  	0.012479 
3603.028288  	0.012092 
3604.957104  	0.011518 
3606.885920  	0.011317 
3608.814736  	0.011754 
3610.743552  	0.010912 
3612.672368  	0.010033 
3614.601184  	0.009855 
3616.530000  	0.008689 
3618.458816  	0.008052 
3620.387632  	0.008026 
3622.316448  	0.007106 
3624.245264  	0.006267 
3626.174080  	0.005424 
3628.102896  	0.004786 
3630.031712  	0.005570 
3631.960528  	0.004824 
3633.889344  	0.003776 
3635.818160  	0.002981 
3637.746976  	0.002461 
3639.675792  	0.002412 
3641.604608  	0.002078 
3643.533424  	0.001119 
3645.462240  	-0.000255 
3647.391056  	-0.000945 
3649.319872  	-0.001184 
3651.248688  	-0.000649 
3653.177504  	-0.001577 
3655.106320  	-0.003227 
3657.035136  	-0.003456 
3658.963952  	-0.003703 
3660.892768  	-0.004447 
3662.821584  	-0.004958 
3664.750400  	-0.005217 
3666.679216  	-0.005897 
3668.608032  	-0.006762 
3670.536848  	-0.006478 
3672.465664  	-0.006283 
3674.394480  	-0.007922 
3676.323296  	-0.007158 
3678.252112  	-0.005487 
3680.180928  	-0.005273 
3682.109744  	-0.005938 
3684.038560  	-0.006664 
3685.967376  	-0.007325 
3687.896192  	-0.008165 
3689.825008  	-0.007790 
3691.753824  	-0.006699 
3693.682640  	-0.006015 
3695.611456  	-0.006008 
3697.540272  	-0.005801 
3699.469088  	-0.005831 
3701.397904  	-0.005161 
3703.326720  	-0.004249 
3705.255536  	-0.004347 
3707.184352  	-0.004906 
3709.113168  	-0.005168 
3711.041984  	-0.004473 
3712.970800  	-0.003210 
3714.899616  	-0.002711 
3716.828432  	-0.003329 
3718.757248  	-0.003956 
3720.686064  	-0.004119 
3722.614880  	-0.003232 
3724.543696  	-0.002594 
3726.472512  	-0.002546 
3728.401328  	-0.003385 
3730.330144  	-0.005045 
3732.258960  	-0.005302 
3734.187776  	-0.003230 
3736.116592  	-0.001280 
3738.045408  	-0.002303 
3739.974224  	-0.003418 
3741.903040  	-0.004010 
3743.831856  	-0.003710 
3745.760672  	-0.002110 
3747.689488  	-0.003819 
3749.618304  	-0.005026 
3751.547120  	-0.003844 
3753.475936  	-0.002305 
3755.404752  	-0.002809 
3757.333568  	-0.003329 
3759.262384  	-0.003158 
3761.191200  	-0.002654 
3763.120016  	-0.002951 
3765.048832  	-0.003276 
3766.977648  	-0.003127 
3768.906464  	-0.003538 
3770.835280  	-0.002944 
3772.764096  	-0.002682 
3774.692912  	-0.003118 
3776.621728  	-0.003613 
3778.550544  	-0.003806 
3780.479360  	-0.003129 
3782.408176  	-0.003085 
3784.336992  	-0.003314 
3786.265808  	-0.003004 
3788.194624  	-0.002933 
3790.123440  	-0.003230 
3792.052256  	-0.003402 
3793.981072  	-0.003672 
3795.909888  	-0.003838 
3797.838704  	-0.003415 
3799.767520  	-0.004446 
3801.696336  	-0.004315 
3803.625152  	-0.003236 
3805.553968  	-0.004203 
3807.482784  	-0.003677 
3809.411600  	-0.002821 
3811.340416  	-0.003061 
3813.269232  	-0.003716 
3815.198048  	-0.004420 
3817.126864  	-0.003487 
3819.055680  	-0.004179 
3820.984496  	-0.004362 
3822.913312  	-0.002694 
3824.842128  	-0.003198 
3826.770944  	-0.003458 
3828.699760  	-0.003390 
3830.628576  	-0.003965 
3832.557392  	-0.003983 
3834.486208  	-0.004337 
3836.415024  	-0.004769 
3838.343840  	-0.003988 
3840.272656  	-0.003201 
3842.201472  	-0.003321 
3844.130288  	-0.003207 
3846.059104  	-0.003031 
3847.987920  	-0.003461 
3849.916736  	-0.004080 
3851.845552  	-0.005242 
3853.774368  	-0.003912 
3855.703184  	-0.002603 
3857.632000  	-0.003020 
3859.560816  	-0.003467 
3861.489632  	-0.003653 
3863.418448  	-0.003694 
3865.347264  	-0.003138 
3867.276080  	-0.003394 
3869.204896  	-0.003615 
3871.133712  	-0.001981 
3873.062528  	-0.002631 
3874.991344  	-0.002718 
3876.920160  	-0.003072 
3878.848976  	-0.003543 
3880.777792  	-0.002541 
3882.706608  	-0.002361 
3884.635424  	-0.002922 
3886.564240  	-0.002342 
3888.493056  	-0.003041 
3890.421872  	-0.003440 
3892.350688  	-0.002561 
3894.279504  	-0.002596 
3896.208320  	-0.002981 
3898.137136  	-0.002931 
3900.065952  	-0.002285 
3901.994768  	-0.001955 
3903.923584  	-0.001823 
3905.852400  	-0.001899 
3907.781216  	-0.002756 
3909.710032  	-0.003302 
3911.638848  	-0.003242 
3913.567664  	-0.003129 
3915.496480  	-0.002755 
3917.425296  	-0.001980 
3919.354112  	-0.002103 
3921.282928  	-0.002435 
3923.211744  	-0.002588 
3925.140560  	-0.002389 
3927.069376  	-0.002741 
3928.998192  	-0.003054 
3930.927008  	-0.002411 
3932.855824  	-0.001748 
3934.784640  	-0.002421 
3936.713456  	-0.002862 
3938.642272  	-0.002845 
3940.571088  	-0.002984 
3942.499904  	-0.002269 
3944.428720  	-0.002012 
3946.357536  	-0.002355 
3948.286352  	-0.002211 
3950.215168  	-0.002597 
3952.143984  	-0.003052 
3954.072800  	-0.003210 
3956.001616  	-0.003176 
3957.930432  	-0.003004 
3959.859248  	-0.002720 
3961.788064  	-0.002488 
3963.716880  	-0.002692 
3965.645696  	-0.003078 
3967.574512  	-0.002981 
3969.503328  	-0.002906 
3971.432144  	-0.003128 
3973.360960  	-0.003138 
3975.289776  	-0.002849 
3977.218592  	-0.002770 
3979.147408  	-0.002890 
3981.076224  	-0.003126 
3983.005040  	-0.003255 
3984.933856  	-0.003075 
3986.862672  	-0.002979 
3988.791488  	-0.003103 
3990.720304  	-0.002936 
3992.649120  	-0.002927 
3994.577936  	-0.003046 
3996.506752  	-0.003090 
3998.435568  	-0.003022 
4000.364384  	-0.003041 