##TITLE=No Description
##DATA TYPE=INFRARED SPECTRUM
##XUNITS=1/CM
##YUNITS=Abs
399.264912  	0.600973 
401.193728  	0.587375 
403.122544  	0.598514 
405.051360  	0.606261 
406.980176  	0.588742 
408.908992  	0.567683 
410.837808  	0.567803 
412.766624  	0.567788 
414.695440  	0.573548 
416.624256  	0.564855 
418.553072  	0.564956 
420.481888  	0.573002 
422.410704  	0.579164 
424.339520  	0.564943 
426.268336  	0.560515 
428.197152  	0.552065 
430.125968  	0.544087 
432.054784  	0.529942 
433.983600  	0.526035 
435.912416  	0.522958 
437.841232  	0.526607 
439.770048  	0.525753 
441.698864  	0.526852 
443.627680  	0.524622 
445.556496  	0.527415 
447.485312  	0.524760 
449.414128  	0.522835 
451.342944  	0.520260 
453.271760  	0.521393 
455.200576  	0.510815 
457.129392  	0.510283 
459.058208  	0.515388 
460.987024  	0.515469 
462.915840  	0.510524 
464.844656  	0.511900 
466.773472  	0.513651 
468.702288  	0.514718 
470.631104  	0.509425 
472.559920  	0.507804 
474.488736  	0.507354 
476.417552  	0.507571 
478.346368  	0.502018 
480.275184  	0.501015 
482.204000  	0.501616 
484.132816  	0.502377 
486.061632  	0.496005 
487.990448  	0.497646 
489.919264  	0.498497 
491.848080  	0.499094 
493.776896  	0.495172 
495.705712  	0.493970 
497.634528  	0.492169 
499.563344  	0.494360 
501.492160  	0.490442 
503.420976  	0.488909 
505.349792  	0.489410 
507.278608  	0.491397 
509.207424  	0.489360 
511.136240  	0.488565 
513.065056  	0.488945 
514.993872  	0.490429 
516.922688  	0.489283 
518.851504  	0.490995 
520.780320  	0.493131 
522.709136  	0.493435 
524.637952  	0.489687 
526.566768  	0.486404 
528.495584  	0.485080 
530.424400  	0.483998 
532.353216  	0.479584 
534.282032  	0.477292 
536.210848  	0.474426 
538.139664  	0.471486 
540.068480  	0.466839 
541.997296  	0.462009 
543.926112  	0.457409 
545.854928  	0.455873 
547.783744  	0.452533 
549.712560  	0.448852 
551.641376  	0.445434 
553.570192  	0.443627 
555.499008  	0.439756 
557.427824  	0.435784 
559.356640  	0.431840 
561.285456  	0.428958 
563.214272  	0.425417 
565.143088  	0.423472 
567.071904  	0.420625 
569.000720  	0.418009 
570.929536  	0.414445 
572.858352  	0.411820 
574.787168  	0.407924 
576.715984  	0.404647 
578.644800  	0.401813 
580.573616  	0.398974 
582.502432  	0.394758 
584.431248  	0.392166 
586.360064  	0.390107 
588.288880  	0.388906 
590.217696  	0.385782 
592.146512  	0.383260 
594.075328  	0.381002 
596.004144  	0.378668 
597.932960  	0.376739 
599.861776  	0.376068 
601.790592  	0.375053 
603.719408  	0.373589 
605.648224  	0.372074 
607.577040  	0.371468 
609.505856  	0.370426 
611.434672  	0.368558 
613.363488  	0.365743 
615.292304  	0.364384 
617.221120  	0.362445 
619.149936  	0.361240 
621.078752  	0.359172 
623.007568  	0.356542 
624.936384  	0.354582 
626.865200  	0.353653 
628.794016  	0.351804 
630.722832  	0.350590 
632.651648  	0.349179 
634.580464  	0.348377 
636.509280  	0.348755 
638.438096  	0.348165 
640.366912  	0.346612 
642.295728  	0.345054 
644.224544  	0.342305 
646.153360  	0.339715 
648.082176  	0.336126 
650.010992  	0.332682 
651.939808  	0.329084 
653.868624  	0.325982 
655.797440  	0.322573 
657.726256  	0.319768 
659.655072  	0.316326 
661.583888  	0.312803 
663.512704  	0.309620 
665.441520  	0.307227 
667.370336  	0.301582 
669.299152  	0.297232 
671.227968  	0.296927 
673.156784  	0.294375 
675.085600  	0.292085 
677.014416  	0.290297 
678.943232  	0.288183 
680.872048  	0.286194 
682.800864  	0.284455 
684.729680  	0.283075 
686.658496  	0.281188 
688.587312  	0.279191 
690.516128  	0.277573 
692.444944  	0.276605 
694.373760  	0.275341 
696.302576  	0.273578 
698.231392  	0.270471 
700.160208  	0.267390 
702.089024  	0.265223 
704.017840  	0.263888 
705.946656  	0.261188 
707.875472  	0.258925 
709.804288  	0.257067 
711.733104  	0.255221 
713.661920  	0.253615 
715.590736  	0.252687 
717.519552  	0.251839 
719.448368  	0.251851 
721.377184  	0.252424 
723.306000  	0.252514 
725.234816  	0.251754 
727.163632  	0.250321 
729.092448  	0.247995 
731.021264  	0.245898 
732.950080  	0.243459 
734.878896  	0.240324 
736.807712  	0.237720 
738.736528  	0.236137 
740.665344  	0.234436 
742.594160  	0.232753 
744.522976  	0.230927 
746.451792  	0.229845 
748.380608  	0.229148 
750.309424  	0.228069 
752.238240  	0.226919 
754.167056  	0.226144 
756.095872  	0.225125 
758.024688  	0.224070 
759.953504  	0.223001 
761.882320  	0.222473 
763.811136  	0.222093 
765.739952  	0.221287 
767.668768  	0.219656 
769.597584  	0.217895 
771.526400  	0.217344 
773.455216  	0.218291 
775.384032  	0.219665 
777.312848  	0.221763 
779.241664  	0.224485 
781.170480  	0.224949 
783.099296  	0.222223 
785.028112  	0.217911 
786.956928  	0.212766 
788.885744  	0.208205 
790.814560  	0.204627 
792.743376  	0.202111 
794.672192  	0.200410 
796.601008  	0.199656 
798.529824  	0.197759 
800.458640  	0.194588 
802.387456  	0.191342 
804.316272  	0.189656 
806.245088  	0.188564 
808.173904  	0.187723 
810.102720  	0.187149 
812.031536  	0.186827 
813.960352  	0.186312 
815.889168  	0.185862 
817.817984  	0.185458 
819.746800  	0.184775 
821.675616  	0.183950 
823.604432  	0.183411 
825.533248  	0.182408 
827.462064  	0.181121 
829.390880  	0.179737 
831.319696  	0.178230 
833.248512  	0.176716 
835.177328  	0.175019 
837.106144  	0.172997 
839.034960  	0.170448 
840.963776  	0.167893 
842.892592  	0.165350 
844.821408  	0.162291 
846.750224  	0.159582 
848.679040  	0.157406 
850.607856  	0.155318 
852.536672  	0.153406 
854.465488  	0.151487 
856.394304  	0.149603 
858.323120  	0.147901 
860.251936  	0.145929 
862.180752  	0.143732 
864.109568  	0.141553 
866.038384  	0.139602 
867.967200  	0.137921 
869.896016  	0.136471 
871.824832  	0.135195 
873.753648  	0.134635 
875.682464  	0.134632 
877.611280  	0.134035 
879.540096  	0.133437 
881.468912  	0.134496 
883.397728  	0.134978 
885.326544  	0.135289 
887.255360  	0.134961 
889.184176  	0.133666 
891.112992  	0.131639 
893.041808  	0.130098 
894.970624  	0.128362 
896.899440  	0.126014 
898.828256  	0.123296 
900.757072  	0.120657 
902.685888  	0.118595 
904.614704  	0.117267 
906.543520  	0.117192 
908.472336  	0.118362 
910.401152  	0.120198 
912.329968  	0.122427 
914.258784  	0.124975 
916.187600  	0.127267 
918.116416  	0.128605 
920.045232  	0.129199 
921.974048  	0.129054 
923.902864  	0.128426 
925.831680  	0.127299 
927.760496  	0.126270 
929.689312  	0.125346 
931.618128  	0.125093 
933.546944  	0.125095 
935.475760  	0.124903 
937.404576  	0.124804 
939.333392  	0.125212 
941.262208  	0.125888 
943.191024  	0.127270 
945.119840  	0.129807 
947.048656  	0.133303 
948.977472  	0.137527 
950.906288  	0.142490 
952.835104  	0.147931 
954.763920  	0.153423 
956.692736  	0.158616 
958.621552  	0.163114 
960.550368  	0.166101 
962.479184  	0.167154 
964.408000  	0.165824 
966.336816  	0.162661 
968.265632  	0.157561 
970.194448  	0.150896 
972.123264  	0.142959 
974.052080  	0.134764 
975.980896  	0.126638 
977.909712  	0.119022 
979.838528  	0.112373 
981.767344  	0.106851 
983.696160  	0.102766 
985.624976  	0.100356 
987.553792  	0.099833 
989.482608  	0.100817 
991.411424  	0.103163 
993.340240  	0.106759 
995.269056  	0.111393 
997.197872  	0.116394 
999.126688  	0.121162 
1001.055504  	0.125893 
1002.984320  	0.130420 
1004.913136  	0.134683 
1006.841952  	0.138392 
1008.770768  	0.141436 
1010.699584  	0.143505 
1012.628400  	0.144439 
1014.557216  	0.144768 
1016.486032  	0.145052 
1018.414848  	0.144879 
1020.343664  	0.144755 
1022.272480  	0.144568 
1024.201296  	0.143475 
1026.130112  	0.139932 
1028.058928  	0.138475 
1029.987744  	0.141328 
1031.916560  	0.142398 
1033.845376  	0.142055 
1035.774192  	0.140704 
1037.703008  	0.140382 
1039.631824  	0.143349 
1041.560640  	0.147242 
1043.489456  	0.152459 
1045.418272  	0.159643 
1047.347088  	0.169020 
1049.275904  	0.179090 
1051.204720  	0.189005 
1053.133536  	0.198322 
1055.062352  	0.205691 
1056.991168  	0.209618 
1058.919984  	0.214558 
1060.848800  	0.218372 
1062.777616  	0.217345 
1064.706432  	0.211465 
1066.635248  	0.207253 
1068.564064  	0.208056 
1070.492880  	0.206043 
1072.421696  	0.200283 
1074.350512  	0.194838 
1076.279328  	0.191279 
1078.208144  	0.190245 
1080.136960  	0.190890 
1082.065776  	0.191736 
1083.994592  	0.192612 
1085.923408  	0.193497 
1087.852224  	0.193398 
1089.781040  	0.193156 
1091.709856  	0.192318 
1093.638672  	0.188700 
1095.567488  	0.182691 
1097.496304  	0.176007 
1099.425120  	0.168687 
1101.353936  	0.160989 
1103.282752  	0.152956 
1105.211568  	0.145168 
1107.140384  	0.137557 
1109.069200  	0.130128 
1110.998016  	0.123279 
1112.926832  	0.116759 
1114.855648  	0.110206 
1116.784464  	0.103817 
1118.713280  	0.098326 
1120.642096  	0.093213 
1122.570912  	0.088012 
1124.499728  	0.083187 
1126.428544  	0.078772 
1128.357360  	0.074464 
1130.286176  	0.070466 
1132.214992  	0.067161 
1134.143808  	0.064440 
1136.072624  	0.062074 
1138.001440  	0.059626 
1139.930256  	0.057104 
1141.859072  	0.055048 
1143.787888  	0.052891 
1145.716704  	0.051062 
1147.645520  	0.049644 
1149.574336  	0.048350 
1151.503152  	0.047184 
1153.431968  	0.046743 
1155.360784  	0.046732 
1157.289600  	0.047011 
1159.218416  	0.047778 
1161.147232  	0.048860 
1163.076048  	0.049853 
1165.004864  	0.051224 
1166.933680  	0.052426 
1168.862496  	0.053965 
1170.791312  	0.055810 
1172.720128  	0.057728 
1174.648944  	0.059585 
1176.577760  	0.061541 
1178.506576  	0.063337 
1180.435392  	0.065164 
1182.364208  	0.067013 
1184.293024  	0.069162 
1186.221840  	0.071312 
1188.150656  	0.073679 
1190.079472  	0.076366 
1192.008288  	0.079563 
1193.937104  	0.083477 
1195.865920  	0.087906 
1197.794736  	0.092387 
1199.723552  	0.097521 
1201.652368  	0.103133 
1203.581184  	0.108790 
1205.510000  	0.114191 
1207.438816  	0.119639 
1209.367632  	0.124878 
1211.296448  	0.129876 
1213.225264  	0.134374 
1215.154080  	0.137990 
1217.082896  	0.140807 
1219.011712  	0.143029 
1220.940528  	0.145145 
1222.869344  	0.146913 
1224.798160  	0.147890 
1226.726976  	0.148579 
1228.655792  	0.149258 
1230.584608  	0.149465 
1232.513424  	0.149302 
1234.442240  	0.148537 
1236.371056  	0.147263 
1238.299872  	0.144890 
1240.228688  	0.139783 
1242.157504  	0.134799 
1244.086320  	0.131378 
1246.015136  	0.125924 
1247.943952  	0.119337 
1249.872768  	0.113022 
1251.801584  	0.107751 
1253.730400  	0.102477 
1255.659216  	0.097296 
1257.588032  	0.092373 
1259.516848  	0.087799 
1261.445664  	0.083717 
1263.374480  	0.080105 
1265.303296  	0.076918 
1267.232112  	0.074305 
1269.160928  	0.072471 
1271.089744  	0.071300 
1273.018560  	0.070677 
1274.947376  	0.070555 
1276.876192  	0.070512 
1278.805008  	0.070136 
1280.733824  	0.068996 
1282.662640  	0.066864 
1284.591456  	0.063941 
1286.520272  	0.061000 
1288.449088  	0.058606 
1290.377904  	0.056585 
1292.306720  	0.055146 
1294.235536  	0.053461 
1296.164352  	0.050975 
1298.093168  	0.048031 
1300.021984  	0.045165 
1301.950800  	0.042480 
1303.879616  	0.040193 
1305.808432  	0.038194 
1307.737248  	0.036618 
1309.666064  	0.035217 
1311.594880  	0.034531 
1313.523696  	0.034158 
1315.452512  	0.033949 
1317.381328  	0.034198 
1319.310144  	0.034625 
1321.238960  	0.035001 
1323.167776  	0.035529 
1325.096592  	0.035983 
1327.025408  	0.036077 
1328.954224  	0.035791 
1330.883040  	0.035313 
1332.811856  	0.034452 
1334.740672  	0.033784 
1336.669488  	0.033332 
1338.598304  	0.033257 
1340.527120  	0.032583 
1342.455936  	0.031414 
1344.384752  	0.031039 
1346.313568  	0.031367 
1348.242384  	0.032129 
1350.171200  	0.033317 
1352.100016  	0.034615 
1354.028832  	0.036044 
1355.957648  	0.037582 
1357.886464  	0.039027 
1359.815280  	0.040381 
1361.744096  	0.041906 
1363.672912  	0.042775 
1365.601728  	0.042603 
1367.530544  	0.042604 
1369.459360  	0.042285 
1371.388176  	0.041058 
1373.316992  	0.039530 
1375.245808  	0.037327 
1377.174624  	0.035102 
1379.103440  	0.032852 
1381.032256  	0.030794 
1382.961072  	0.029365 
1384.889888  	0.029030 
1386.818704  	0.029369 
1388.747520  	0.028827 
1390.676336  	0.026641 
1392.605152  	0.022770 
1394.533968  	0.021538 
1396.462784  	0.025311 
1398.391600  	0.026577 
1400.320416  	0.026104 
1402.249232  	0.025496 
1404.178048  	0.025780 
1406.106864  	0.026520 
1408.035680  	0.028022 
1409.964496  	0.030141 
1411.893312  	0.032853 
1413.822128  	0.035431 
1415.750944  	0.038319 
1417.679760  	0.040358 
1419.608576  	0.041186 
1421.537392  	0.041208 
1423.466208  	0.041179 
1425.395024  	0.040405 
1427.323840  	0.039216 
1429.252656  	0.037939 
1431.181472  	0.037145 
1433.110288  	0.036862 
1435.039104  	0.036927 
1436.967920  	0.037276 
1438.896736  	0.037593 
1440.825552  	0.037843 
1442.754368  	0.038304 
1444.683184  	0.038335 
1446.612000  	0.038301 
1448.540816  	0.037958 
1450.469632  	0.037913 
1452.398448  	0.038139 
1454.327264  	0.038391 
1456.256080  	0.038916 
1458.184896  	0.039615 
1460.113712  	0.039997 
1462.042528  	0.040252 
1463.971344  	0.040415 
1465.900160  	0.041984 
1467.828976  	0.043849 
1469.757792  	0.045693 
1471.686608  	0.048131 
1473.615424  	0.052496 
1475.544240  	0.055804 
1477.473056  	0.058108 
1479.401872  	0.059116 
1481.330688  	0.059997 
1483.259504  	0.060239 
1485.188320  	0.059954 
1487.117136  	0.058828 
1489.045952  	0.057550 
1490.974768  	0.055084 
1492.903584  	0.052340 
1494.832400  	0.049539 
1496.761216  	0.046234 
1498.690032  	0.043403 
1500.618848  	0.041687 
1502.547664  	0.039708 
1504.476480  	0.036996 
1506.405296  	0.035202 
1508.334112  	0.036258 
1510.262928  	0.035535 
1512.191744  	0.034255 
1514.120560  	0.033275 
1516.049376  	0.032997 
1517.978192  	0.032844 
1519.907008  	0.033256 
1521.835824  	0.034743 
1523.764640  	0.037178 
1525.693456  	0.039620 
1527.622272  	0.041573 
1529.551088  	0.042564 
1531.479904  	0.042875 
1533.408720  	0.042324 
1535.337536  	0.041559 
1537.266352  	0.039308 
1539.195168  	0.035157 
1541.123984  	0.033281 
1543.052800  	0.034451 
1544.981616  	0.034376 
1546.910432  	0.033265 
1548.839248  	0.032842 
1550.768064  	0.033057 
1552.696880  	0.032460 
1554.625696  	0.032625 
1556.554512  	0.031834 
1558.483328  	0.031170 
1560.412144  	0.035814 
1562.340960  	0.038814 
1564.269776  	0.040647 
1566.198592  	0.043688 
1568.127408  	0.045976 
1570.056224  	0.049997 
1571.985040  	0.054028 
1573.913856  	0.055848 
1575.842672  	0.056539 
1577.771488  	0.058907 
1579.700304  	0.059599 
1581.629120  	0.059666 
1583.557936  	0.059772 
1585.486752  	0.060838 
1587.415568  	0.062867 
1589.344384  	0.066115 
1591.273200  	0.069849 
1593.202016  	0.074411 
1595.130832  	0.078867 
1597.059648  	0.083345 
1598.988464  	0.086897 
1600.917280  	0.089796 
1602.846096  	0.091445 
1604.774912  	0.092434 
1606.703728  	0.092130 
1608.632544  	0.091648 
1610.561360  	0.090857 
1612.490176  	0.090461 
1614.418992  	0.089660 
1616.347808  	0.089726 
1618.276624  	0.092206 
1620.205440  	0.095532 
1622.134256  	0.098396 
1624.063072  	0.103716 
1625.991888  	0.108860 
1627.920704  	0.114627 
1629.849520  	0.121369 
1631.778336  	0.127454 
1633.707152  	0.131518 
1635.635968  	0.137021 
1637.564784  	0.144211 
1639.493600  	0.149078 
1641.422416  	0.152573 
1643.351232  	0.154951 
1645.280048  	0.155582 
1647.208864  	0.156949 
1649.137680  	0.158205 
1651.066496  	0.157176 
1652.995312  	0.154231 
1654.924128  	0.156167 
1656.852944  	0.155863 
1658.781760  	0.154780 
1660.710576  	0.153077 
1662.639392  	0.151315 
1664.568208  	0.150456 
1666.497024  	0.149575 
1668.425840  	0.147514 
1670.354656  	0.145924 
1672.283472  	0.145406 
1674.212288  	0.144724 
1676.141104  	0.144620 
1678.069920  	0.145431 
1679.998736  	0.145954 
1681.927552  	0.145494 
1683.856368  	0.144147 
1685.785184  	0.145821 
1687.714000  	0.146430 
1689.642816  	0.145615 
1691.571632  	0.143940 
1693.500448  	0.141917 
1695.429264  	0.138467 
1697.358080  	0.135829 
1699.286896  	0.132493 
1701.215712  	0.128600 
1703.144528  	0.126154 
1705.073344  	0.122063 
1707.002160  	0.117520 
1708.930976  	0.113649 
1710.859792  	0.109062 
1712.788608  	0.103923 
1714.717424  	0.098193 
1716.646240  	0.091534 
1718.575056  	0.084843 
1720.503872  	0.079592 
1722.432688  	0.074703 
1724.361504  	0.068707 
1726.290320  	0.063142 
1728.219136  	0.058067 
1730.147952  	0.053306 
1732.076768  	0.048394 
1734.005584  	0.043064 
1735.934400  	0.038434 
1737.863216  	0.035632 
1739.792032  	0.031338 
1741.720848  	0.028582 
1743.649664  	0.026218 
1745.578480  	0.023531 
1747.507296  	0.020916 
1749.436112  	0.019475 
1751.364928  	0.018472 
1753.293744  	0.017138 
1755.222560  	0.015675 
1757.151376  	0.015003 
1759.080192  	0.013975 
1761.009008  	0.013318 
1762.937824  	0.012834 
1764.866640  	0.012560 
1766.795456  	0.012080 
1768.724272  	0.011904 
1770.653088  	0.010221 
1772.581904  	0.009568 
1774.510720  	0.010295 
1776.439536  	0.010780 
1778.368352  	0.010666 
1780.297168  	0.010764 
1782.225984  	0.010375 
1784.154800  	0.010263 
1786.083616  	0.010128 
1788.012432  	0.009951 
1789.941248  	0.009459 
1791.870064  	0.009359 
1793.798880  	0.009211 
1795.727696  	0.009538 
1797.656512  	0.009144 
1799.585328  	0.008914 
1801.514144  	0.009060 
1803.442960  	0.008732 
1805.371776  	0.008236 
1807.300592  	0.008350 
1809.229408  	0.007916 
1811.158224  	0.008063 
1813.087040  	0.007966 
1815.015856  	0.007695 
1816.944672  	0.007667 
1818.873488  	0.007927 
1820.802304  	0.007910 
1822.731120  	0.007995 
1824.659936  	0.007863 
1826.588752  	0.007956 
1828.517568  	0.007439 
1830.446384  	0.007878 
1832.375200  	0.008129 
1834.304016  	0.007952 
1836.232832  	0.007654 
1838.161648  	0.008044 
1840.090464  	0.007888 
1842.019280  	0.007642 
1843.948096  	0.007334 
1845.876912  	0.007756 
1847.805728  	0.008031 
1849.734544  	0.008053 
1851.663360  	0.007569 
1853.592176  	0.007478 
1855.520992  	0.007441 
1857.449808  	0.007908 
1859.378624  	0.007800 
1861.307440  	0.007607 
1863.236256  	0.007232 
1865.165072  	0.007118 
1867.093888  	0.007032 
1869.022704  	0.007806 
1870.951520  	0.007846 
1872.880336  	0.007711 
1874.809152  	0.007415 
1876.737968  	0.007501 
1878.666784  	0.007110 
1880.595600  	0.007164 
1882.524416  	0.007267 
1884.453232  	0.007094 
1886.382048  	0.006744 
1888.310864  	0.007282 
1890.239680  	0.007731 
1892.168496  	0.008026 
1894.097312  	0.007326 
1896.026128  	0.007210 
1897.954944  	0.006764 
1899.883760  	0.006881 
1901.812576  	0.006937 
1903.741392  	0.006919 
1905.670208  	0.006610 
1907.599024  	0.006821 
1909.527840  	0.006740 
1911.456656  	0.007173 
1913.385472  	0.007236 
1915.314288  	0.007576 
1917.243104  	0.007354 
1919.171920  	0.007042 
1921.100736  	0.007147 
1923.029552  	0.007711 
1924.958368  	0.006940 
1926.887184  	0.007020 
1928.816000  	0.006770 
1930.744816  	0.006509 
1932.673632  	0.006326 
1934.602448  	0.007025 
1936.531264  	0.007267 
1938.460080  	0.007133 
1940.388896  	0.006978 
1942.317712  	0.007158 
1944.246528  	0.006257 
1946.175344  	0.006854 
1948.104160  	0.006793 
1950.032976  	0.006560 
1951.961792  	0.006645 
1953.890608  	0.006939 
1955.819424  	0.006281 
1957.748240  	0.006737 
1959.677056  	0.007274 
1961.605872  	0.007313 
1963.534688  	0.006613 
1965.463504  	0.007646 
1967.392320  	0.006803 
1969.321136  	0.006026 
1971.249952  	0.006895 
1973.178768  	0.008319 
1975.107584  	0.006637 
1977.036400  	0.006894 
1978.965216  	0.009622 
1980.894032  	0.010116 
1982.822848  	0.007377 
1984.751664  	0.006852 
1986.680480  	0.007186 
1988.609296  	0.007271 
1990.538112  	0.007219 
1992.466928  	0.008155 
1994.395744  	0.007597 
1996.324560  	0.007580 
1998.253376  	0.007147 
2000.182192  	0.007024 
2002.111008  	0.007119 
2004.039824  	0.007708 
2005.968640  	0.006872 
2007.897456  	0.007658 
2009.826272  	0.007026 
2011.755088  	0.005870 
2013.683904  	0.006690 
2015.612720  	0.007641 
2017.541536  	0.007251 
2019.470352  	0.007462 
2021.399168  	0.005987 
2023.327984  	0.006828 
2025.256800  	0.007153 
2027.185616  	0.006811 
2029.114432  	0.006293 
2031.043248  	0.007668 
2032.972064  	0.007705 
2034.900880  	0.008152 
2036.829696  	0.007431 
2038.758512  	0.006474 
2040.687328  	0.006498 
2042.616144  	0.006983 
2044.544960  	0.007242 
2046.473776  	0.008229 
2048.402592  	0.008019 
2050.331408  	0.008516 
2052.260224  	0.008193 
2054.189040  	0.007504 
2056.117856  	0.006177 
2058.046672  	0.006164 
2059.975488  	0.006515 
2061.904304  	0.006958 
2063.833120  	0.007547 
2065.761936  	0.007975 
2067.690752  	0.007056 
2069.619568  	0.006475 
2071.548384  	0.005613 
2073.477200  	0.005751 
2075.406016  	0.006881 
2077.334832  	0.007073 
2079.263648  	0.006209 
2081.192464  	0.006321 
2083.121280  	0.006916 
2085.050096  	0.006982 
2086.978912  	0.006716 
2088.907728  	0.006955 
2090.836544  	0.006657 
2092.765360  	0.006258 
2094.694176  	0.005861 
2096.622992  	0.006047 
2098.551808  	0.006166 
2100.480624  	0.006183 
2102.409440  	0.006226 
2104.338256  	0.006919 
2106.267072  	0.007127 
2108.195888  	0.007094 
2110.124704  	0.007373 
2112.053520  	0.007862 
2113.982336  	0.007344 
2115.911152  	0.007207 
2117.839968  	0.006867 
2119.768784  	0.006336 
2121.697600  	0.005949 
2123.626416  	0.005791 
2125.555232  	0.005769 
2127.484048  	0.006408 
2129.412864  	0.006367 
2131.341680  	0.005419 
2133.270496  	0.005431 
2135.199312  	0.006031 
2137.128128  	0.006306 
2139.056944  	0.006527 
2140.985760  	0.006197 
2142.914576  	0.007215 
2144.843392  	0.006978 
2146.772208  	0.006938 
2148.701024  	0.006683 
2150.629840  	0.005974 
2152.558656  	0.004958 
2154.487472  	0.004249 
2156.416288  	0.003256 
2158.345104  	0.005755 
2160.273920  	0.009367 
2162.202736  	0.009324 
2164.131552  	0.008382 
2166.060368  	0.009653 
2167.989184  	0.008362 
2169.918000  	0.006947 
2171.846816  	0.006773 
2173.775632  	0.007069 
2175.704448  	0.007309 
2177.633264  	0.008217 
2179.562080  	0.007691 
2181.490896  	0.007443 
2183.419712  	0.007629 
2185.348528  	0.008267 
2187.277344  	0.008067 
2189.206160  	0.007754 
2191.134976  	0.008105 
2193.063792  	0.009624 
2194.992608  	0.009242 
2196.921424  	0.007764 
2198.850240  	0.007569 
2200.779056  	0.007792 
2202.707872  	0.008030 
2204.636688  	0.007995 
2206.565504  	0.007633 
2208.494320  	0.008231 
2210.423136  	0.007042 
2212.351952  	0.006895 
2214.280768  	0.007419 
2216.209584  	0.007544 
2218.138400  	0.007541 
2220.067216  	0.008034 
2221.996032  	0.007848 
2223.924848  	0.007127 
2225.853664  	0.007199 
2227.782480  	0.007656 
2229.711296  	0.007797 
2231.640112  	0.007670 
2233.568928  	0.007005 
2235.497744  	0.007292 
2237.426560  	0.007209 
2239.355376  	0.007006 
2241.284192  	0.007061 
2243.213008  	0.007323 
2245.141824  	0.007260 
2247.070640  	0.006610 
2248.999456  	0.006365 
2250.928272  	0.006621 
2252.857088  	0.006491 
2254.785904  	0.006647 
2256.714720  	0.007307 
2258.643536  	0.007646 
2260.572352  	0.007333 
2262.501168  	0.007252 
2264.429984  	0.007068 
2266.358800  	0.007655 
2268.287616  	0.007992 
2270.216432  	0.007838 
2272.145248  	0.007248 
2274.074064  	0.007252 
2276.002880  	0.007487 
2277.931696  	0.008028 
2279.860512  	0.008417 
2281.789328  	0.008534 
2283.718144  	0.008569 
2285.646960  	0.008750 
2287.575776  	0.008875 
2289.504592  	0.008501 
2291.433408  	0.008071 
2293.362224  	0.007996 
2295.291040  	0.007858 
2297.219856  	0.008142 
2299.148672  	0.008195 
2301.077488  	0.008015 
2303.006304  	0.008020 
2304.935120  	0.007942 
2306.863936  	0.007628 
2308.792752  	0.007405 
2310.721568  	0.007166 
2312.650384  	0.006709 
2314.579200  	0.006040 
2316.508016  	0.005520 
2318.436832  	0.004687 
2320.365648  	0.003851 
2322.294464  	0.003081 
2324.223280  	0.001826 
2326.152096  	-0.000091 
2328.080912  	-0.001520 
2330.009728  	-0.002573 
2331.938544  	-0.003489 
2333.867360  	-0.004664 
2335.796176  	-0.005526 
2337.724992  	-0.006036 
2339.653808  	-0.006210 
2341.582624  	-0.006312 
2343.511440  	-0.004875 
2345.440256  	-0.002471 
2347.369072  	0.000610 
2349.297888  	0.001249 
2351.226704  	-0.001205 
2353.155520  	-0.004476 
2355.084336  	-0.007459 
2357.013152  	-0.009749 
2358.941968  	-0.011125 
2360.870784  	-0.011704 
2362.799600  	-0.010836 
2364.728416  	-0.009300 
2366.657232  	-0.007412 
2368.586048  	-0.005479 
2370.514864  	-0.002986 
2372.443680  	-0.000462 
2374.372496  	0.002361 
2376.301312  	0.004510 
2378.230128  	0.006310 
2380.158944  	0.007350 
2382.087760  	0.007809 
2384.016576  	0.008168 
2385.945392  	0.008271 
2387.874208  	0.007883 
2389.803024  	0.007730 
2391.731840  	0.007696 
2393.660656  	0.007702 
2395.589472  	0.007751 
2397.518288  	0.007937 
2399.447104  	0.007887 
2401.375920  	0.007601 
2403.304736  	0.007631 
2405.233552  	0.007921 
2407.162368  	0.008021 
2409.091184  	0.007890 
2411.020000  	0.007903 
2412.948816  	0.008234 
2414.877632  	0.008454 
2416.806448  	0.008652 
2418.735264  	0.008625 
2420.664080  	0.008462 
2422.592896  	0.008159 
2424.521712  	0.008010 
2426.450528  	0.008163 
2428.379344  	0.008369 
2430.308160  	0.008416 
2432.236976  	0.008476 
2434.165792  	0.008741 
2436.094608  	0.009102 
2438.023424  	0.009114 
2439.952240  	0.009121 
2441.881056  	0.009157 
2443.809872  	0.009178 
2445.738688  	0.009172 
2447.667504  	0.009176 
2449.596320  	0.009114 
2451.525136  	0.009114 
2453.453952  	0.009308 
2455.382768  	0.009451 
2457.311584  	0.009577 
2459.240400  	0.009665 
2461.169216  	0.009451 
2463.098032  	0.009246 
2465.026848  	0.009248 
2466.955664  	0.009326 
2468.884480  	0.009238 
2470.813296  	0.009255 
2472.742112  	0.009055 
2474.670928  	0.008947 
2476.599744  	0.009076 
2478.528560  	0.009270 
2480.457376  	0.009681 
2482.386192  	0.009790 
2484.315008  	0.009739 
2486.243824  	0.009889 
2488.172640  	0.009727 
2490.101456  	0.009652 
2492.030272  	0.010038 
2493.959088  	0.009929 
2495.887904  	0.009570 
2497.816720  	0.009822 
2499.745536  	0.010078 
2501.674352  	0.010254 
2503.603168  	0.010177 
2505.531984  	0.010163 
2507.460800  	0.010211 
2509.389616  	0.010203 
2511.318432  	0.010037 
2513.247248  	0.010118 
2515.176064  	0.010177 
2517.104880  	0.010380 
2519.033696  	0.010649 
2520.962512  	0.010682 
2522.891328  	0.010587 
2524.820144  	0.010562 
2526.748960  	0.010648 
2528.677776  	0.010833 
2530.606592  	0.010845 
2532.535408  	0.010948 
2534.464224  	0.011051 
2536.393040  	0.010896 
2538.321856  	0.010804 
2540.250672  	0.010922 
2542.179488  	0.010964 
2544.108304  	0.011021 
2546.037120  	0.010950 
2547.965936  	0.011254 
2549.894752  	0.011555 
2551.823568  	0.011544 
2553.752384  	0.011608 
2555.681200  	0.011666 
2557.610016  	0.011592 
2559.538832  	0.011759 
2561.467648  	0.011891 
2563.396464  	0.011927 
2565.325280  	0.012021 
2567.254096  	0.012068 
2569.182912  	0.012007 
2571.111728  	0.011913 
2573.040544  	0.011601 
2574.969360  	0.011631 
2576.898176  	0.011976 
2578.826992  	0.012328 
2580.755808  	0.012214 
2582.684624  	0.012088 
2584.613440  	0.012015 
2586.542256  	0.012212 
2588.471072  	0.012342 
2590.399888  	0.012328 
2592.328704  	0.012484 
2594.257520  	0.012636 
2596.186336  	0.012832 
2598.115152  	0.012861 
2600.043968  	0.012724 
2601.972784  	0.012795 
2603.901600  	0.012932 
2605.830416  	0.013141 
2607.759232  	0.013021 
2609.688048  	0.013064 
2611.616864  	0.013247 
2613.545680  	0.013357 
2615.474496  	0.013399 
2617.403312  	0.013382 
2619.332128  	0.013477 
2621.260944  	0.013614 
2623.189760  	0.013581 
2625.118576  	0.013637 
2627.047392  	0.013782 
2628.976208  	0.014095 
2630.905024  	0.014271 
2632.833840  	0.014398 
2634.762656  	0.014512 
2636.691472  	0.014544 
2638.620288  	0.014572 
2640.549104  	0.014608 
2642.477920  	0.014548 
2644.406736  	0.014606 
2646.335552  	0.014897 
2648.264368  	0.015107 
2650.193184  	0.015236 
2652.122000  	0.015394 
2654.050816  	0.015503 
2655.979632  	0.015567 
2657.908448  	0.015617 
2659.837264  	0.015658 
2661.766080  	0.015529 
2663.694896  	0.015483 
2665.623712  	0.015532 
2667.552528  	0.015537 
2669.481344  	0.015712 
2671.410160  	0.015984 
2673.338976  	0.016083 
2675.267792  	0.016175 
2677.196608  	0.016238 
2679.125424  	0.016285 
2681.054240  	0.016286 
2682.983056  	0.016326 
2684.911872  	0.016463 
2686.840688  	0.016539 
2688.769504  	0.016641 
2690.698320  	0.016760 
2692.627136  	0.016880 
2694.555952  	0.016963 
2696.484768  	0.016890 
2698.413584  	0.016971 
2700.342400  	0.017051 
2702.271216  	0.017272 
2704.200032  	0.017510 
2706.128848  	0.017608 
2708.057664  	0.017646 
2709.986480  	0.017571 
2711.915296  	0.017538 
2713.844112  	0.017676 
2715.772928  	0.017796 
2717.701744  	0.017928 
2719.630560  	0.017959 
2721.559376  	0.017988 
2723.488192  	0.018100 
2725.417008  	0.018298 
2727.345824  	0.018444 
2729.274640  	0.018420 
2731.203456  	0.018360 
2733.132272  	0.018448 
2735.061088  	0.018566 
2736.989904  	0.018641 
2738.918720  	0.018671 
2740.847536  	0.018653 
2742.776352  	0.018783 
2744.705168  	0.018965 
2746.633984  	0.018982 
2748.562800  	0.019048 
2750.491616  	0.019129 
2752.420432  	0.019158 
2754.349248  	0.019106 
2756.278064  	0.019171 
2758.206880  	0.019173 
2760.135696  	0.019255 
2762.064512  	0.019264 
2763.993328  	0.019300 
2765.922144  	0.019333 
2767.850960  	0.019336 
2769.779776  	0.019380 
2771.708592  	0.019397 
2773.637408  	0.019355 
2775.566224  	0.019355 
2777.495040  	0.019338 
2779.423856  	0.019372 
2781.352672  	0.019489 
2783.281488  	0.019514 
2785.210304  	0.019398 
2787.139120  	0.019567 
2789.067936  	0.019768 
2790.996752  	0.019822 
2792.925568  	0.019856 
2794.854384  	0.019850 
2796.783200  	0.019809 
2798.712016  	0.019708 
2800.640832  	0.019782 
2802.569648  	0.019953 
2804.498464  	0.019985 
2806.427280  	0.019979 
2808.356096  	0.020023 
2810.284912  	0.020187 
2812.213728  	0.020138 
2814.142544  	0.020169 
2816.071360  	0.020194 
2818.000176  	0.019981 
2819.928992  	0.019728 
2821.857808  	0.019726 
2823.786624  	0.019670 
2825.715440  	0.019614 
2827.644256  	0.019504 
2829.573072  	0.019336 
2831.501888  	0.018956 
2833.430704  	0.018656 
2835.359520  	0.018418 
2837.288336  	0.018134 
2839.217152  	0.017838 
2841.145968  	0.017516 
2843.074784  	0.017165 
2845.003600  	0.016955 
2846.932416  	0.016842 
2848.861232  	0.016647 
2850.790048  	0.016109 
2852.718864  	0.015344 
2854.647680  	0.014542 
2856.576496  	0.013846 
2858.505312  	0.013032 
2860.434128  	0.012111 
2862.362944  	0.011150 
2864.291760  	0.010109 
2866.220576  	0.009149 
2868.149392  	0.008641 
2870.078208  	0.008502 
2872.007024  	0.008447 
2873.935840  	0.008348 
2875.864656  	0.008152 
2877.793472  	0.007824 
2879.722288  	0.007315 
2881.651104  	0.006589 
2883.579920  	0.005982 
2885.508736  	0.005888 
2887.437552  	0.006182 
2889.366368  	0.006217 
2891.295184  	0.005801 
2893.224000  	0.005524 
2895.152816  	0.005622 
2897.081632  	0.005089 
2899.010448  	0.003049 
2900.939264  	0.001429 
2902.868080  	0.002860 
2904.796896  	0.004482 
2906.725712  	0.005173 
2908.654528  	0.005638 
2910.583344  	0.006056 
2912.512160  	0.007218 
2914.440976  	0.008836 
2916.369792  	0.009752 
2918.298608  	0.010315 
2920.227424  	0.010736 
2922.156240  	0.011329 
2924.085056  	0.012008 
2926.013872  	0.012691 
2927.942688  	0.013489 
2929.871504  	0.014358 
2931.800320  	0.014989 
2933.729136  	0.015398 
2935.657952  	0.015652 
2937.586768  	0.015961 
2939.515584  	0.016034 
2941.444400  	0.015945 
2943.373216  	0.015938 
2945.302032  	0.015960 
2947.230848  	0.015978 
2949.159664  	0.015565 
2951.088480  	0.014730 
2953.017296  	0.014113 
2954.946112  	0.013208 
2956.874928  	0.012121 
2958.803744  	0.011227 
2960.732560  	0.010511 
2962.661376  	0.009865 
2964.590192  	0.008710 
2966.519008  	0.007200 
2968.447824  	0.005903 
2970.376640  	0.004926 
2972.305456  	0.004249 
2974.234272  	0.004365 
2976.163088  	0.004640 
2978.091904  	0.004676 
2980.020720  	0.004558 
2981.949536  	0.004629 
2983.878352  	0.004190 
2985.807168  	0.003074 
2987.735984  	0.002206 
2989.664800  	0.002925 
2991.593616  	0.006583 
2993.522432  	0.008574 
2995.451248  	0.008989 
2997.380064  	0.010013 
2999.308880  	0.011480 
3001.237696  	0.013096 
3003.166512  	0.014512 
3005.095328  	0.015946 
3007.024144  	0.017648 
3008.952960  	0.019165 
3010.881776  	0.020777 
3012.810592  	0.022302 
3014.739408  	0.023552 
3016.668224  	0.024942 
3018.597040  	0.026290 
3020.525856  	0.027466 
3022.454672  	0.028586 
3024.383488  	0.029682 
3026.312304  	0.030655 
3028.241120  	0.031549 
3030.169936  	0.032371 
3032.098752  	0.033367 
3034.027568  	0.034085 
3035.956384  	0.034591 
3037.885200  	0.035147 
3039.814016  	0.035886 
3041.742832  	0.036687 
3043.671648  	0.037186 
3045.600464  	0.037517 
3047.529280  	0.037848 
3049.458096  	0.038205 
3051.386912  	0.038529 
3053.315728  	0.038867 
3055.244544  	0.039288 
3057.173360  	0.039765 
3059.102176  	0.040152 
3061.030992  	0.040442 
3062.959808  	0.040700 
3064.888624  	0.041077 
3066.817440  	0.041604 
3068.746256  	0.042013 
3070.675072  	0.042237 
3072.603888  	0.042618 
3074.532704  	0.043083 
3076.461520  	0.043425 
3078.390336  	0.043599 
3080.319152  	0.043918 
3082.247968  	0.044451 
3084.176784  	0.044960 
3086.105600  	0.045188 
3088.034416  	0.045474 
3089.963232  	0.045915 
3091.892048  	0.046266 
3093.820864  	0.046576 
3095.749680  	0.046958 
3097.678496  	0.047176 
3099.607312  	0.047413 
3101.536128  	0.047797 
3103.464944  	0.048309 
3105.393760  	0.048740 
3107.322576  	0.049133 
3109.251392  	0.049398 
3111.180208  	0.049584 
3113.109024  	0.049815 
3115.037840  	0.050207 
3116.966656  	0.050584 
3118.895472  	0.050729 
3120.824288  	0.050925 
3122.753104  	0.051335 
3124.681920  	0.051567 
3126.610736  	0.051719 
3128.539552  	0.052055 
3130.468368  	0.052174 
3132.397184  	0.052361 
3134.326000  	0.052702 
3136.254816  	0.052856 
3138.183632  	0.053134 
3140.112448  	0.053376 
3142.041264  	0.053530 
3143.970080  	0.053619 
3145.898896  	0.053783 
3147.827712  	0.054090 
3149.756528  	0.054492 
3151.685344  	0.054848 
3153.614160  	0.055206 
3155.542976  	0.055370 
3157.471792  	0.055516 
3159.400608  	0.056109 
3161.329424  	0.056593 
3163.258240  	0.056789 
3165.187056  	0.057081 
3167.115872  	0.057382 
3169.044688  	0.057516 
3170.973504  	0.057534 
3172.902320  	0.057623 
3174.831136  	0.057875 
3176.759952  	0.058148 
3178.688768  	0.058453 
3180.617584  	0.058541 
3182.546400  	0.058295 
3184.475216  	0.058606 
3186.404032  	0.058896 
3188.332848  	0.058973 
3190.261664  	0.059130 
3192.190480  	0.059113 
3194.119296  	0.058939 
3196.048112  	0.058972 
3197.976928  	0.059155 
3199.905744  	0.059213 
3201.834560  	0.059225 
3203.763376  	0.059300 
3205.692192  	0.059228 
3207.621008  	0.059062 
3209.549824  	0.058971 
3211.478640  	0.058892 
3213.407456  	0.058775 
3215.336272  	0.058763 
3217.265088  	0.058515 
3219.193904  	0.058169 
3221.122720  	0.058064 
3223.051536  	0.057995 
3224.980352  	0.057823 
3226.909168  	0.057543 
3228.837984  	0.057349 
3230.766800  	0.057291 
3232.695616  	0.057239 
3234.624432  	0.057163 
3236.553248  	0.057136 
3238.482064  	0.057084 
3240.410880  	0.057062 
3242.339696  	0.056987 
3244.268512  	0.056827 
3246.197328  	0.056807 
3248.126144  	0.056854 
3250.054960  	0.056972 
3251.983776  	0.056986 
3253.912592  	0.057154 
3255.841408  	0.057287 
3257.770224  	0.057271 
3259.699040  	0.057466 
3261.627856  	0.057636 
3263.556672  	0.057723 
3265.485488  	0.057797 
3267.414304  	0.057923 
3269.343120  	0.058049 
3271.271936  	0.058328 
3273.200752  	0.058637 
3275.129568  	0.058624 
3277.058384  	0.058568 
3278.987200  	0.058799 
3280.916016  	0.059025 
3282.844832  	0.059017 
3284.773648  	0.059059 
3286.702464  	0.059282 
3288.631280  	0.059497 
3290.560096  	0.059592 
3292.488912  	0.059741 
3294.417728  	0.059775 
3296.346544  	0.059944 
3298.275360  	0.060218 
3300.204176  	0.060538 
3302.132992  	0.060729 
3304.061808  	0.061018 
3305.990624  	0.061283 
3307.919440  	0.061412 
3309.848256  	0.061592 
3311.777072  	0.061735 
3313.705888  	0.061969 
3315.634704  	0.062399 
3317.563520  	0.062677 
3319.492336  	0.062715 
3321.421152  	0.062830 
3323.349968  	0.063000 
3325.278784  	0.063052 
3327.207600  	0.063135 
3329.136416  	0.063270 
3331.065232  	0.063176 
3332.994048  	0.063286 
3334.922864  	0.063471 
3336.851680  	0.063397 
3338.780496  	0.063300 
3340.709312  	0.063212 
3342.638128  	0.063068 
3344.566944  	0.063042 
3346.495760  	0.062963 
3348.424576  	0.062681 
3350.353392  	0.062476 
3352.282208  	0.062307 
3354.211024  	0.062153 
3356.139840  	0.062010 
3358.068656  	0.061778 
3359.997472  	0.061586 
3361.926288  	0.061261 
3363.855104  	0.060893 
3365.783920  	0.060630 
3367.712736  	0.060364 
3369.641552  	0.059973 
3371.570368  	0.059571 
3373.499184  	0.059262 
3375.428000  	0.059016 
3377.356816  	0.058935 
3379.285632  	0.058738 
3381.214448  	0.058498 
3383.143264  	0.058157 
3385.072080  	0.057944 
3387.000896  	0.057827 
3388.929712  	0.057620 
3390.858528  	0.057241 
3392.787344  	0.056941 
3394.716160  	0.056481 
3396.644976  	0.056201 
3398.573792  	0.055973 
3400.502608  	0.055457 
3402.431424  	0.055008 
3404.360240  	0.054760 
3406.289056  	0.054469 
3408.217872  	0.054005 
3410.146688  	0.053622 
3412.075504  	0.053701 
3414.004320  	0.053568 
3415.933136  	0.053043 
3417.861952  	0.052605 
3419.790768  	0.052486 
3421.719584  	0.052181 
3423.648400  	0.051618 
3425.577216  	0.051392 
3427.506032  	0.051167 
3429.434848  	0.050587 
3431.363664  	0.050113 
3433.292480  	0.049912 
3435.221296  	0.049821 
3437.150112  	0.049545 
3439.078928  	0.049180 
3441.007744  	0.048810 
3442.936560  	0.048484 
3444.865376  	0.048094 
3446.794192  	0.047566 
3448.723008  	0.047247 
3450.651824  	0.046697 
3452.580640  	0.046120 
3454.509456  	0.045768 
3456.438272  	0.045489 
3458.367088  	0.045152 
3460.295904  	0.044767 
3462.224720  	0.044342 
3464.153536  	0.043724 
3466.082352  	0.043308 
3468.011168  	0.043015 
3469.939984  	0.042547 
3471.868800  	0.041992 
3473.797616  	0.041619 
3475.726432  	0.041159 
3477.655248  	0.040617 
3479.584064  	0.040350 
3481.512880  	0.040038 
3483.441696  	0.039272 
3485.370512  	0.038473 
3487.299328  	0.038076 
3489.228144  	0.037846 
3491.156960  	0.037273 
3493.085776  	0.036806 
3495.014592  	0.036397 
3496.943408  	0.035988 
3498.872224  	0.035529 
3500.801040  	0.035325 
3502.729856  	0.035081 
3504.658672  	0.034605 
3506.587488  	0.033686 
3508.516304  	0.033212 
3510.445120  	0.033272 
3512.373936  	0.032970 
3514.302752  	0.032495 
3516.231568  	0.032168 
3518.160384  	0.031646 
3520.089200  	0.031111 
3522.018016  	0.030996 
3523.946832  	0.031324 
3525.875648  	0.030907 
3527.804464  	0.030234 
3529.733280  	0.029919 
3531.662096  	0.029405 
3533.590912  	0.028901 
3535.519728  	0.028920 
3537.448544  	0.028852 
3539.377360  	0.028157 
3541.306176  	0.027442 
3543.234992  	0.027067 
3545.163808  	0.027391 
3547.092624  	0.027321 
3549.021440  	0.026056 
3550.950256  	0.025127 
3552.879072  	0.025429 
3554.807888  	0.025488 
3556.736704  	0.024836 
3558.665520  	0.024365 
3560.594336  	0.024192 
3562.523152  	0.023736 
3564.451968  	0.023449 
3566.380784  	0.023899 
3568.309600  	0.023764 
3570.238416  	0.022457 
3572.167232  	0.021539 
3574.096048  	0.021162 
3576.024864  	0.020799 
3577.953680  	0.020362 
3579.882496  	0.019974 
3581.811312  	0.019638 
3583.740128  	0.019075 
3585.668944  	0.018848 
3587.597760  	0.019477 
3589.526576  	0.018886 
3591.455392  	0.017094 
3593.384208  	0.016541 
3595.313024  	0.016427 
3597.241840  	0.015827 
3599.170656  	0.014963 
3601.099472  	0.014472 
3603.028288  	0.014147 
3604.957104  	0.013491 
3606.885920  	0.013030 
3608.814736  	0.013320 
3610.743552  	0.012609 
3612.672368  	0.011778 
3614.601184  	0.011359 
3616.530000  	0.009998 
3618.458816  	0.009331 
3620.387632  	0.009502 
3622.316448  	0.008681 
3624.245264  	0.007629 
3626.174080  	0.006319 
3628.102896  	0.005656 
3630.031712  	0.006858 
3631.960528  	0.005976 
3633.889344  	0.005023 
3635.818160  	0.004218 
3637.746976  	0.003452 
3639.675792  	0.003182 
3641.604608  	0.002676 
3643.533424  	0.001589 
3645.462240  	-0.000195 
3647.391056  	-0.001756 
3649.319872  	-0.002579 
3651.248688  	-0.001555 
3653.177504  	-0.002127 
3655.106320  	-0.003781 
3657.035136  	-0.004187 
3658.963952  	-0.004794 
3660.892768  	-0.005567 
3662.821584  	-0.006047 
3664.750400  	-0.006370 
3666.679216  	-0.007298 
3668.608032  	-0.008492 
3670.536848  	-0.007719 
3672.465664  	-0.007710 
3674.394480  	-0.009889 
3676.323296  	-0.008759 
3678.252112  	-0.006883 
3680.180928  	-0.006074 
3682.109744  	-0.006442 
3684.038560  	-0.007312 
3685.967376  	-0.008479 
3687.896192  	-0.009591 
3689.825008  	-0.008829 
3691.753824  	-0.007362 
3693.682640  	-0.006499 
3695.611456  	-0.006209 
3697.540272  	-0.005696 
3699.469088  	-0.005523 
3701.397904  	-0.004889 
3703.326720  	-0.003761 
3705.255536  	-0.003606 
3707.184352  	-0.004215 
3709.113168  	-0.004633 
3711.041984  	-0.004030 
3712.970800  	-0.002289 
3714.899616  	-0.001448 
3716.828432  	-0.001945 
3718.757248  	-0.002586 
3720.686064  	-0.003069 
3722.614880  	-0.002452 
3724.543696  	-0.001823 
3726.472512  	-0.001484 
3728.401328  	-0.002159 
3730.330144  	-0.003984 
3732.258960  	-0.004644 
3734.187776  	-0.003168 
3736.116592  	-0.001006 
3738.045408  	-0.001619 
3739.974224  	-0.002568 
3741.903040  	-0.003286 
3743.831856  	-0.003108 
3745.760672  	-0.001298 
3747.689488  	-0.003142 
3749.618304  	-0.004555 
3751.547120  	-0.003357 
3753.475936  	-0.001382 
3755.404752  	-0.001835 
3757.333568  	-0.002427 
3759.262384  	-0.002358 
3761.191200  	-0.001639 
3763.120016  	-0.001805 
3765.048832  	-0.001914 
3766.977648  	-0.001805 
3768.906464  	-0.002295 
3770.835280  	-0.001417 
3772.764096  	-0.001003 
3774.692912  	-0.001395 
3776.621728  	-0.002083 
3778.550544  	-0.002504 
3780.479360  	-0.001671 
3782.408176  	-0.001583 
3784.336992  	-0.001838 
3786.265808  	-0.001605 
3788.194624  	-0.001536 
3790.123440  	-0.001632 
3792.052256  	-0.001731 
3793.981072  	-0.002289 
3795.909888  	-0.002630 
3797.838704  	-0.002390 
3799.767520  	-0.003651 
3801.696336  	-0.003172 
3803.625152  	-0.002116 
3805.553968  	-0.003181 
3807.482784  	-0.002449 
3809.411600  	-0.001504 
3811.340416  	-0.001615 
3813.269232  	-0.002486 
3815.198048  	-0.003555 
3817.126864  	-0.002765 
3819.055680  	-0.003510 
3820.984496  	-0.003262 
3822.913312  	-0.001381 
3824.842128  	-0.001944 
3826.770944  	-0.002289 
3828.699760  	-0.002257 
3830.628576  	-0.002735 
3832.557392  	-0.002729 
3834.486208  	-0.003253 
3836.415024  	-0.004026 
3838.343840  	-0.003339 
3840.272656  	-0.002524 
3842.201472  	-0.002486 
3844.130288  	-0.002116 
3846.059104  	-0.001719 
3847.987920  	-0.002298 
3849.916736  	-0.003446 
3851.845552  	-0.004965 
3853.774368  	-0.002931 
3855.703184  	-0.001281 
3857.632000  	-0.001849 
3859.560816  	-0.002302 
3861.489632  	-0.002447 
3863.418448  	-0.002421 
3865.347264  	-0.001929 
3867.276080  	-0.002678 
3869.204896  	-0.003033 
3871.133712  	-0.001318 
3873.062528  	-0.001859 
3874.991344  	-0.001552 
3876.920160  	-0.001840 
3878.848976  	-0.002336 
3880.777792  	-0.001345 
3882.706608  	-0.001365 
3884.635424  	-0.002057 
3886.564240  	-0.001016 
3888.493056  	-0.001679 
3890.421872  	-0.002285 
3892.350688  	-0.001371 
3894.279504  	-0.001255 
3896.208320  	-0.001828 
3898.137136  	-0.001954 
3900.065952  	-0.001550 
3901.994768  	-0.001420 
3903.923584  	-0.000882 
3905.852400  	-0.000554 
3907.781216  	-0.001212 
3909.710032  	-0.001646 
3911.638848  	-0.001606 
3913.567664  	-0.001622 
3915.496480  	-0.001513 
3917.425296  	-0.000647 
3919.354112  	-0.000583 
3921.282928  	-0.000915 
3923.211744  	-0.001219 
3925.140560  	-0.000959 
3927.069376  	-0.001188 
3928.998192  	-0.001469 
3930.927008  	-0.000866 
3932.855824  	-0.000270 
3934.784640  	-0.000848 
3936.713456  	-0.001142 
3938.642272  	-0.001174 
3940.571088  	-0.001391 
3942.499904  	-0.000751 
3944.428720  	-0.000581 
3946.357536  	-0.001034 
3948.286352  	-0.000835 
3950.215168  	-0.001049 
3952.143984  	-0.001460 
3954.072800  	-0.001529 
3956.001616  	-0.001450 
3957.930432  	-0.001319 
3959.859248  	-0.001061 
3961.788064  	-0.000983 
3963.716880  	-0.001152 
3965.645696  	-0.001246 
3967.574512  	-0.001123 
3969.503328  	-0.001123 
3971.432144  	-0.001244 
3973.360960  	-0.001266 
3975.289776  	-0.001010 
3977.218592  	-0.001037 
3979.147408  	-0.001147 
3981.076224  	-0.001313 
3983.005040  	-0.001515 
3984.933856  	-0.001383 
3986.862672  	-0.001255 
3988.791488  	-0.001322 
3990.720304  	-0.001359 
3992.649120  	-0.001421 
3994.577936  	-0.001447 
3996.506752  	-0.001475 
3998.435568  	-0.001289 
4000.364384  	-0.001160 