##TITLE=No Description
##DATA TYPE=INFRARED SPECTRUM
##XUNITS=1/CM
##YUNITS=Abs
399.264912  	0.560015 
401.193728  	0.545789 
403.122544  	0.557300 
405.051360  	0.551982 
406.980176  	0.543269 
408.908992  	0.528301 
410.837808  	0.529696 
412.766624  	0.531903 
414.695440  	0.524100 
416.624256  	0.519916 
418.553072  	0.524398 
420.481888  	0.521555 
422.410704  	0.527384 
424.339520  	0.516531 
426.268336  	0.512385 
428.197152  	0.507691 
430.125968  	0.506833 
432.054784  	0.497136 
433.983600  	0.491998 
435.912416  	0.489595 
437.841232  	0.489976 
439.770048  	0.488612 
441.698864  	0.491597 
443.627680  	0.484618 
445.556496  	0.482903 
447.485312  	0.481549 
449.414128  	0.480475 
451.342944  	0.480586 
453.271760  	0.483567 
455.200576  	0.478801 
457.129392  	0.476300 
459.058208  	0.474245 
460.987024  	0.476410 
462.915840  	0.478111 
464.844656  	0.478857 
466.773472  	0.477662 
468.702288  	0.480056 
470.631104  	0.478349 
472.559920  	0.472486 
474.488736  	0.469940 
476.417552  	0.472054 
478.346368  	0.471438 
480.275184  	0.477308 
482.204000  	0.478437 
484.132816  	0.479033 
486.061632  	0.475109 
487.990448  	0.472570 
489.919264  	0.470177 
491.848080  	0.469413 
493.776896  	0.466356 
495.705712  	0.467669 
497.634528  	0.466875 
499.563344  	0.465318 
501.492160  	0.465142 
503.420976  	0.468485 
505.349792  	0.465584 
507.278608  	0.462874 
509.207424  	0.460980 
511.136240  	0.463189 
513.065056  	0.465131 
514.993872  	0.464337 
516.922688  	0.463320 
518.851504  	0.466939 
520.780320  	0.465934 
522.709136  	0.464835 
524.637952  	0.463714 
526.566768  	0.462343 
528.495584  	0.460567 
530.424400  	0.458974 
532.353216  	0.455113 
534.282032  	0.452611 
536.210848  	0.447269 
538.139664  	0.442742 
540.068480  	0.437997 
541.997296  	0.434163 
543.926112  	0.430828 
545.854928  	0.427792 
547.783744  	0.423706 
549.712560  	0.419726 
551.641376  	0.415586 
553.570192  	0.413140 
555.499008  	0.409569 
557.427824  	0.406959 
559.356640  	0.403036 
561.285456  	0.398248 
563.214272  	0.394598 
565.143088  	0.391948 
567.071904  	0.387529 
569.000720  	0.383929 
570.929536  	0.381549 
572.858352  	0.379507 
574.787168  	0.376332 
576.715984  	0.372409 
578.644800  	0.367764 
580.573616  	0.364089 
582.502432  	0.359567 
584.431248  	0.357285 
586.360064  	0.354812 
588.288880  	0.352889 
590.217696  	0.351032 
592.146512  	0.349260 
594.075328  	0.346806 
596.004144  	0.344433 
597.932960  	0.343031 
599.861776  	0.343281 
601.790592  	0.342317 
603.719408  	0.340055 
605.648224  	0.338307 
607.577040  	0.338014 
609.505856  	0.337864 
611.434672  	0.336669 
613.363488  	0.334584 
615.292304  	0.333426 
617.221120  	0.331018 
619.149936  	0.329193 
621.078752  	0.327639 
623.007568  	0.326386 
624.936384  	0.324599 
626.865200  	0.323468 
628.794016  	0.321932 
630.722832  	0.320393 
632.651648  	0.319606 
634.580464  	0.319852 
636.509280  	0.320385 
638.438096  	0.320184 
640.366912  	0.319767 
642.295728  	0.318411 
644.224544  	0.316064 
646.153360  	0.313298 
648.082176  	0.309866 
650.010992  	0.306636 
651.939808  	0.302604 
653.868624  	0.298987 
655.797440  	0.295898 
657.726256  	0.292765 
659.655072  	0.288557 
661.583888  	0.284651 
663.512704  	0.281543 
665.441520  	0.279150 
667.370336  	0.274168 
669.299152  	0.269607 
671.227968  	0.268825 
673.156784  	0.266559 
675.085600  	0.264195 
677.014416  	0.262633 
678.943232  	0.261198 
680.872048  	0.259674 
682.800864  	0.258360 
684.729680  	0.257327 
686.658496  	0.255288 
688.587312  	0.253300 
690.516128  	0.251785 
692.444944  	0.250961 
694.373760  	0.250235 
696.302576  	0.248824 
698.231392  	0.246279 
700.160208  	0.243689 
702.089024  	0.241583 
704.017840  	0.239892 
705.946656  	0.237448 
707.875472  	0.235173 
709.804288  	0.233235 
711.733104  	0.232155 
713.661920  	0.230955 
715.590736  	0.230378 
717.519552  	0.230209 
719.448368  	0.230765 
721.377184  	0.232013 
723.306000  	0.232707 
725.234816  	0.232652 
727.163632  	0.231938 
729.092448  	0.229789 
731.021264  	0.227196 
732.950080  	0.224417 
734.878896  	0.221902 
736.807712  	0.219875 
738.736528  	0.217985 
740.665344  	0.216141 
742.594160  	0.214895 
744.522976  	0.213720 
746.451792  	0.212384 
748.380608  	0.211845 
750.309424  	0.211541 
752.238240  	0.210929 
754.167056  	0.210666 
756.095872  	0.210100 
758.024688  	0.209271 
759.953504  	0.208920 
761.882320  	0.209429 
763.811136  	0.209589 
765.739952  	0.209251 
767.668768  	0.208546 
769.597584  	0.207502 
771.526400  	0.207290 
773.455216  	0.209391 
775.384032  	0.212527 
777.312848  	0.216478 
779.241664  	0.220510 
781.170480  	0.221793 
783.099296  	0.219327 
785.028112  	0.214340 
786.956928  	0.208574 
788.885744  	0.203559 
790.814560  	0.200007 
792.743376  	0.197530 
794.672192  	0.195733 
796.601008  	0.195148 
798.529824  	0.193756 
800.458640  	0.190649 
802.387456  	0.187542 
804.316272  	0.185991 
806.245088  	0.185542 
808.173904  	0.185494 
810.102720  	0.185481 
812.031536  	0.185776 
813.960352  	0.186062 
815.889168  	0.186065 
817.817984  	0.186078 
819.746800  	0.186460 
821.675616  	0.186482 
823.604432  	0.186245 
825.533248  	0.185454 
827.462064  	0.184275 
829.390880  	0.183225 
831.319696  	0.182311 
833.248512  	0.180816 
835.177328  	0.178623 
837.106144  	0.176235 
839.034960  	0.173765 
840.963776  	0.170830 
842.892592  	0.168043 
844.821408  	0.165035 
846.750224  	0.162216 
848.679040  	0.160336 
850.607856  	0.158256 
852.536672  	0.156229 
854.465488  	0.154192 
856.394304  	0.152542 
858.323120  	0.151120 
860.251936  	0.149222 
862.180752  	0.147095 
864.109568  	0.145199 
866.038384  	0.143397 
867.967200  	0.141662 
869.896016  	0.140074 
871.824832  	0.138715 
873.753648  	0.138240 
875.682464  	0.138580 
877.611280  	0.138800 
879.540096  	0.138931 
881.468912  	0.140161 
883.397728  	0.140908 
885.326544  	0.141538 
887.255360  	0.141384 
889.184176  	0.140298 
891.112992  	0.138537 
893.041808  	0.137031 
894.970624  	0.135180 
896.899440  	0.132648 
898.828256  	0.129507 
900.757072  	0.126196 
902.685888  	0.123588 
904.614704  	0.122371 
906.543520  	0.122611 
908.472336  	0.124188 
910.401152  	0.126914 
912.329968  	0.130339 
914.258784  	0.133983 
916.187600  	0.137117 
918.116416  	0.139316 
920.045232  	0.140387 
921.974048  	0.140399 
923.902864  	0.139643 
925.831680  	0.138596 
927.760496  	0.137732 
929.689312  	0.136966 
931.618128  	0.137025 
933.546944  	0.137383 
935.475760  	0.137775 
937.404576  	0.138236 
939.333392  	0.139128 
941.262208  	0.140534 
943.191024  	0.143127 
945.119840  	0.147329 
947.048656  	0.152647 
948.977472  	0.159131 
950.906288  	0.166316 
952.835104  	0.174031 
954.763920  	0.181592 
956.692736  	0.188550 
958.621552  	0.194257 
960.550368  	0.197849 
962.479184  	0.199274 
964.408000  	0.197765 
966.336816  	0.193664 
968.265632  	0.186837 
970.194448  	0.178291 
972.123264  	0.168655 
974.052080  	0.158628 
975.980896  	0.148714 
977.909712  	0.139605 
979.838528  	0.132021 
981.767344  	0.125852 
983.696160  	0.121492 
985.624976  	0.119584 
987.553792  	0.119901 
989.482608  	0.122021 
991.411424  	0.126013 
993.340240  	0.131634 
995.269056  	0.138433 
997.197872  	0.145538 
999.126688  	0.152173 
1001.055504  	0.158877 
1002.984320  	0.165283 
1004.913136  	0.171290 
1006.841952  	0.176394 
1008.770768  	0.180716 
1010.699584  	0.183578 
1012.628400  	0.184985 
1014.557216  	0.185497 
1016.486032  	0.185827 
1018.414848  	0.185787 
1020.343664  	0.186002 
1022.272480  	0.185796 
1024.201296  	0.184873 
1026.130112  	0.181783 
1028.058928  	0.180792 
1029.987744  	0.184046 
1031.916560  	0.185988 
1033.845376  	0.186525 
1035.774192  	0.186447 
1037.703008  	0.187504 
1039.631824  	0.191926 
1041.560640  	0.197749 
1043.489456  	0.205528 
1045.418272  	0.215534 
1047.347088  	0.227701 
1049.275904  	0.240424 
1051.204720  	0.252618 
1053.133536  	0.262786 
1055.062352  	0.270110 
1056.991168  	0.273361 
1058.919984  	0.276973 
1060.848800  	0.279092 
1062.777616  	0.277037 
1064.706432  	0.269706 
1066.635248  	0.263368 
1068.564064  	0.261574 
1070.492880  	0.257478 
1072.421696  	0.250301 
1074.350512  	0.243668 
1076.279328  	0.238879 
1078.208144  	0.235746 
1080.136960  	0.234764 
1082.065776  	0.234925 
1083.994592  	0.234644 
1085.923408  	0.233784 
1087.852224  	0.232055 
1089.781040  	0.230082 
1091.709856  	0.227144 
1093.638672  	0.221672 
1095.567488  	0.213886 
1097.496304  	0.205366 
1099.425120  	0.196154 
1101.353936  	0.186739 
1103.282752  	0.177114 
1105.211568  	0.167594 
1107.140384  	0.158211 
1109.069200  	0.148971 
1110.998016  	0.140601 
1112.926832  	0.132865 
1114.855648  	0.125095 
1116.784464  	0.117488 
1118.713280  	0.110851 
1120.642096  	0.104901 
1122.570912  	0.098958 
1124.499728  	0.093188 
1126.428544  	0.087864 
1128.357360  	0.082847 
1130.286176  	0.078344 
1132.214992  	0.074559 
1134.143808  	0.071260 
1136.072624  	0.068392 
1138.001440  	0.065676 
1139.930256  	0.062919 
1141.859072  	0.060524 
1143.787888  	0.058104 
1145.716704  	0.055930 
1147.645520  	0.054237 
1149.574336  	0.052961 
1151.503152  	0.051929 
1153.431968  	0.051602 
1155.360784  	0.051816 
1157.289600  	0.052501 
1159.218416  	0.053562 
1161.147232  	0.055068 
1163.076048  	0.056402 
1165.004864  	0.058334 
1166.933680  	0.060207 
1168.862496  	0.062409 
1170.791312  	0.064981 
1172.720128  	0.067368 
1174.648944  	0.069789 
1176.577760  	0.072498 
1178.506576  	0.074973 
1180.435392  	0.077542 
1182.364208  	0.079983 
1184.293024  	0.082631 
1186.221840  	0.085524 
1188.150656  	0.088696 
1190.079472  	0.092366 
1192.008288  	0.096753 
1193.937104  	0.101839 
1195.865920  	0.107655 
1197.794736  	0.113572 
1199.723552  	0.120062 
1201.652368  	0.127069 
1203.581184  	0.134170 
1205.510000  	0.140845 
1207.438816  	0.147558 
1209.367632  	0.154107 
1211.296448  	0.160174 
1213.225264  	0.165484 
1215.154080  	0.169755 
1217.082896  	0.173163 
1219.011712  	0.175663 
1220.940528  	0.177951 
1222.869344  	0.179719 
1224.798160  	0.180718 
1226.726976  	0.181041 
1228.655792  	0.181121 
1230.584608  	0.180804 
1232.513424  	0.180312 
1234.442240  	0.178910 
1236.371056  	0.176593 
1238.299872  	0.173071 
1240.228688  	0.167012 
1242.157504  	0.160882 
1244.086320  	0.155984 
1246.015136  	0.149351 
1247.943952  	0.141811 
1249.872768  	0.134503 
1251.801584  	0.128192 
1253.730400  	0.122030 
1255.659216  	0.115964 
1257.588032  	0.110207 
1259.516848  	0.104928 
1261.445664  	0.100066 
1263.374480  	0.095685 
1265.303296  	0.091844 
1267.232112  	0.088764 
1269.160928  	0.086473 
1271.089744  	0.084938 
1273.018560  	0.084125 
1274.947376  	0.083957 
1276.876192  	0.083765 
1278.805008  	0.083043 
1280.733824  	0.081457 
1282.662640  	0.078827 
1284.591456  	0.075483 
1286.520272  	0.072113 
1288.449088  	0.069281 
1290.377904  	0.066886 
1292.306720  	0.065183 
1294.235536  	0.063208 
1296.164352  	0.060493 
1298.093168  	0.057159 
1300.021984  	0.053794 
1301.950800  	0.050612 
1303.879616  	0.047876 
1305.808432  	0.045699 
1307.737248  	0.044046 
1309.666064  	0.042464 
1311.594880  	0.041770 
1313.523696  	0.041508 
1315.452512  	0.041243 
1317.381328  	0.041466 
1319.310144  	0.042074 
1321.238960  	0.042563 
1323.167776  	0.043162 
1325.096592  	0.043680 
1327.025408  	0.043902 
1328.954224  	0.043589 
1330.883040  	0.042938 
1332.811856  	0.041960 
1334.740672  	0.041297 
1336.669488  	0.040989 
1338.598304  	0.041214 
1340.527120  	0.040410 
1342.455936  	0.038759 
1344.384752  	0.038348 
1346.313568  	0.038897 
1348.242384  	0.039951 
1350.171200  	0.041473 
1352.100016  	0.043163 
1354.028832  	0.045025 
1355.957648  	0.046967 
1357.886464  	0.048826 
1359.815280  	0.050656 
1361.744096  	0.052860 
1363.672912  	0.053938 
1365.601728  	0.053480 
1367.530544  	0.053574 
1369.459360  	0.053372 
1371.388176  	0.052135 
1373.316992  	0.050835 
1375.245808  	0.048398 
1377.174624  	0.045557 
1379.103440  	0.042893 
1381.032256  	0.040460 
1382.961072  	0.038873 
1384.889888  	0.038551 
1386.818704  	0.039047 
1388.747520  	0.038137 
1390.676336  	0.035583 
1392.605152  	0.032064 
1394.533968  	0.031449 
1396.462784  	0.035039 
1398.391600  	0.036241 
1400.320416  	0.035619 
1402.249232  	0.034843 
1404.178048  	0.035688 
1406.106864  	0.036664 
1408.035680  	0.038074 
1409.964496  	0.040468 
1411.893312  	0.043431 
1413.822128  	0.046186 
1415.750944  	0.049498 
1417.679760  	0.052097 
1419.608576  	0.052677 
1421.537392  	0.051795 
1423.466208  	0.051613 
1425.395024  	0.050376 
1427.323840  	0.048729 
1429.252656  	0.047496 
1431.181472  	0.046456 
1433.110288  	0.045921 
1435.039104  	0.046298 
1436.967920  	0.046967 
1438.896736  	0.046833 
1440.825552  	0.046978 
1442.754368  	0.047537 
1444.683184  	0.047671 
1446.612000  	0.047963 
1448.540816  	0.047770 
1450.469632  	0.047516 
1452.398448  	0.047758 
1454.327264  	0.048488 
1456.256080  	0.050087 
1458.184896  	0.050987 
1460.113712  	0.050335 
1462.042528  	0.050137 
1463.971344  	0.050732 
1465.900160  	0.052649 
1467.828976  	0.054445 
1469.757792  	0.056876 
1471.686608  	0.060797 
1473.615424  	0.066099 
1475.544240  	0.069147 
1477.473056  	0.071172 
1479.401872  	0.071985 
1481.330688  	0.072933 
1483.259504  	0.073014 
1485.188320  	0.072703 
1487.117136  	0.071876 
1489.045952  	0.070895 
1490.974768  	0.067558 
1492.903584  	0.063415 
1494.832400  	0.060173 
1496.761216  	0.056865 
1498.690032  	0.053319 
1500.618848  	0.050719 
1502.547664  	0.048242 
1504.476480  	0.045965 
1506.405296  	0.046086 
1508.334112  	0.046830 
1510.262928  	0.044418 
1512.191744  	0.042317 
1514.120560  	0.041241 
1516.049376  	0.041751 
1517.978192  	0.041953 
1519.907008  	0.042616 
1521.835824  	0.044928 
1523.764640  	0.047245 
1525.693456  	0.050024 
1527.622272  	0.051984 
1529.551088  	0.052525 
1531.479904  	0.052926 
1533.408720  	0.052729 
1535.337536  	0.051186 
1537.266352  	0.048859 
1539.195168  	0.045736 
1541.123984  	0.043986 
1543.052800  	0.044345 
1544.981616  	0.043392 
1546.910432  	0.041213 
1548.839248  	0.040774 
1550.768064  	0.041189 
1552.696880  	0.040584 
1554.625696  	0.041402 
1556.554512  	0.041296 
1558.483328  	0.042574 
1560.412144  	0.046755 
1562.340960  	0.048656 
1564.269776  	0.050757 
1566.198592  	0.054466 
1568.127408  	0.057608 
1570.056224  	0.062804 
1571.985040  	0.066904 
1573.913856  	0.069070 
1575.842672  	0.070669 
1577.771488  	0.073050 
1579.700304  	0.073046 
1581.629120  	0.072964 
1583.557936  	0.073197 
1585.486752  	0.074726 
1587.415568  	0.077326 
1589.344384  	0.081558 
1591.273200  	0.086425 
1593.202016  	0.092004 
1595.130832  	0.097266 
1597.059648  	0.102339 
1598.988464  	0.106236 
1600.917280  	0.109515 
1602.846096  	0.111331 
1604.774912  	0.112306 
1606.703728  	0.111937 
1608.632544  	0.111373 
1610.561360  	0.110273 
1612.490176  	0.109729 
1614.418992  	0.109084 
1616.347808  	0.110168 
1618.276624  	0.113363 
1620.205440  	0.117057 
1622.134256  	0.121045 
1624.063072  	0.127818 
1625.991888  	0.133729 
1627.920704  	0.140685 
1629.849520  	0.148064 
1631.778336  	0.154615 
1633.707152  	0.159596 
1635.635968  	0.166814 
1637.564784  	0.173798 
1639.493600  	0.177730 
1641.422416  	0.180706 
1643.351232  	0.182704 
1645.280048  	0.183398 
1647.208864  	0.184833 
1649.137680  	0.184363 
1651.066496  	0.182346 
1652.995312  	0.180072 
1654.924128  	0.180622 
1656.852944  	0.178714 
1658.781760  	0.176639 
1660.710576  	0.174493 
1662.639392  	0.172669 
1664.568208  	0.170918 
1666.497024  	0.169310 
1668.425840  	0.167468 
1670.354656  	0.165921 
1672.283472  	0.164628 
1674.212288  	0.163641 
1676.141104  	0.163291 
1678.069920  	0.163362 
1679.998736  	0.163861 
1681.927552  	0.163606 
1683.856368  	0.162863 
1685.785184  	0.163386 
1687.714000  	0.162673 
1689.642816  	0.161141 
1691.571632  	0.158695 
1693.500448  	0.156255 
1695.429264  	0.152970 
1697.358080  	0.149628 
1699.286896  	0.145974 
1701.215712  	0.141308 
1703.144528  	0.137566 
1705.073344  	0.132982 
1707.002160  	0.127603 
1708.930976  	0.122767 
1710.859792  	0.117497 
1712.788608  	0.112123 
1714.717424  	0.106737 
1716.646240  	0.100241 
1718.575056  	0.092653 
1720.503872  	0.085833 
1722.432688  	0.080191 
1724.361504  	0.073708 
1726.290320  	0.067757 
1728.219136  	0.062535 
1730.147952  	0.058057 
1732.076768  	0.053457 
1734.005584  	0.048352 
1735.934400  	0.042572 
1737.863216  	0.039182 
1739.792032  	0.034780 
1741.720848  	0.031925 
1743.649664  	0.029570 
1745.578480  	0.026773 
1747.507296  	0.024240 
1749.436112  	0.023023 
1751.364928  	0.021435 
1753.293744  	0.019277 
1755.222560  	0.017675 
1757.151376  	0.017274 
1759.080192  	0.016043 
1761.009008  	0.015434 
1762.937824  	0.014639 
1764.866640  	0.014015 
1766.795456  	0.013941 
1768.724272  	0.014073 
1770.653088  	0.012601 
1772.581904  	0.012264 
1774.510720  	0.012403 
1776.439536  	0.012388 
1778.368352  	0.011956 
1780.297168  	0.012195 
1782.225984  	0.011793 
1784.154800  	0.011733 
1786.083616  	0.011458 
1788.012432  	0.011173 
1789.941248  	0.011163 
1791.870064  	0.011414 
1793.798880  	0.010914 
1795.727696  	0.011033 
1797.656512  	0.010498 
1799.585328  	0.010411 
1801.514144  	0.010626 
1803.442960  	0.010100 
1805.371776  	0.009422 
1807.300592  	0.009469 
1809.229408  	0.009148 
1811.158224  	0.009408 
1813.087040  	0.009062 
1815.015856  	0.008636 
1816.944672  	0.008657 
1818.873488  	0.009027 
1820.802304  	0.009034 
1822.731120  	0.009132 
1824.659936  	0.009199 
1826.588752  	0.009186 
1828.517568  	0.008826 
1830.446384  	0.009395 
1832.375200  	0.009210 
1834.304016  	0.008958 
1836.232832  	0.008804 
1838.161648  	0.009167 
1840.090464  	0.008845 
1842.019280  	0.008850 
1843.948096  	0.008843 
1845.876912  	0.009176 
1847.805728  	0.009019 
1849.734544  	0.008875 
1851.663360  	0.008436 
1853.592176  	0.008400 
1855.520992  	0.008269 
1857.449808  	0.008907 
1859.378624  	0.008816 
1861.307440  	0.008624 
1863.236256  	0.008254 
1865.165072  	0.008397 
1867.093888  	0.008858 
1869.022704  	0.009664 
1870.951520  	0.008896 
1872.880336  	0.008347 
1874.809152  	0.007970 
1876.737968  	0.008268 
1878.666784  	0.008163 
1880.595600  	0.008144 
1882.524416  	0.008031 
1884.453232  	0.008146 
1886.382048  	0.007852 
1888.310864  	0.008219 
1890.239680  	0.008481 
1892.168496  	0.008414 
1894.097312  	0.008157 
1896.026128  	0.008357 
1897.954944  	0.007772 
1899.883760  	0.007722 
1901.812576  	0.007587 
1903.741392  	0.007890 
1905.670208  	0.007611 
1907.599024  	0.007545 
1909.527840  	0.007467 
1911.456656  	0.007921 
1913.385472  	0.007975 
1915.314288  	0.008143 
1917.243104  	0.008138 
1919.171920  	0.007969 
1921.100736  	0.007826 
1923.029552  	0.008758 
1924.958368  	0.007552 
1926.887184  	0.007331 
1928.816000  	0.007129 
1930.744816  	0.007108 
1932.673632  	0.006858 
1934.602448  	0.007486 
1936.531264  	0.007372 
1938.460080  	0.007140 
1940.388896  	0.007391 
1942.317712  	0.007886 
1944.246528  	0.007201 
1946.175344  	0.007859 
1948.104160  	0.006985 
1950.032976  	0.006877 
1951.961792  	0.007033 
1953.890608  	0.006899 
1955.819424  	0.005759 
1957.748240  	0.006540 
1959.677056  	0.007185 
1961.605872  	0.007109 
1963.534688  	0.006557 
1965.463504  	0.008373 
1967.392320  	0.007793 
1969.321136  	0.007096 
1971.249952  	0.007951 
1973.178768  	0.008675 
1975.107584  	0.007040 
1977.036400  	0.006856 
1978.965216  	0.008869 
1980.894032  	0.009355 
1982.822848  	0.007404 
1984.751664  	0.007583 
1986.680480  	0.007963 
1988.609296  	0.008646 
1990.538112  	0.009244 
1992.466928  	0.010620 
1994.395744  	0.009732 
1996.324560  	0.008795 
1998.253376  	0.008011 
2000.182192  	0.008044 
2002.111008  	0.008077 
2004.039824  	0.008541 
2005.968640  	0.007277 
2007.897456  	0.008059 
2009.826272  	0.007675 
2011.755088  	0.006582 
2013.683904  	0.007530 
2015.612720  	0.009130 
2017.541536  	0.007922 
2019.470352  	0.007661 
2021.399168  	0.008020 
2023.327984  	0.008630 
2025.256800  	0.007560 
2027.185616  	0.007364 
2029.114432  	0.007781 
2031.043248  	0.009746 
2032.972064  	0.009220 
2034.900880  	0.009509 
2036.829696  	0.009075 
2038.758512  	0.008810 
2040.687328  	0.008506 
2042.616144  	0.007754 
2044.544960  	0.007484 
2046.473776  	0.008367 
2048.402592  	0.008055 
2050.331408  	0.008988 
2052.260224  	0.008784 
2054.189040  	0.008424 
2056.117856  	0.007770 
2058.046672  	0.007873 
2059.975488  	0.007894 
2061.904304  	0.008217 
2063.833120  	0.008552 
2065.761936  	0.008588 
2067.690752  	0.007618 
2069.619568  	0.007591 
2071.548384  	0.007228 
2073.477200  	0.007641 
2075.406016  	0.008317 
2077.334832  	0.008339 
2079.263648  	0.007399 
2081.192464  	0.007817 
2083.121280  	0.008536 
2085.050096  	0.008655 
2086.978912  	0.008158 
2088.907728  	0.008188 
2090.836544  	0.007379 
2092.765360  	0.007040 
2094.694176  	0.007369 
2096.622992  	0.007254 
2098.551808  	0.007101 
2100.480624  	0.007384 
2102.409440  	0.006845 
2104.338256  	0.007405 
2106.267072  	0.008137 
2108.195888  	0.008634 
2110.124704  	0.008766 
2112.053520  	0.008979 
2113.982336  	0.008765 
2115.911152  	0.008552 
2117.839968  	0.007840 
2119.768784  	0.007373 
2121.697600  	0.007135 
2123.626416  	0.007117 
2125.555232  	0.007006 
2127.484048  	0.007219 
2129.412864  	0.006815 
2131.341680  	0.005886 
2133.270496  	0.006220 
2135.199312  	0.006993 
2137.128128  	0.006682 
2139.056944  	0.006694 
2140.985760  	0.005764 
2142.914576  	0.006493 
2144.843392  	0.006416 
2146.772208  	0.007218 
2148.701024  	0.008378 
2150.629840  	0.009443 
2152.558656  	0.008117 
2154.487472  	0.006022 
2156.416288  	0.003935 
2158.345104  	0.006945 
2160.273920  	0.009836 
2162.202736  	0.010198 
2164.131552  	0.009232 
2166.060368  	0.009918 
2167.989184  	0.008774 
2169.918000  	0.007827 
2171.846816  	0.007368 
2173.775632  	0.007711 
2175.704448  	0.008992 
2177.633264  	0.010022 
2179.562080  	0.009224 
2181.490896  	0.008755 
2183.419712  	0.009126 
2185.348528  	0.009516 
2187.277344  	0.009233 
2189.206160  	0.009218 
2191.134976  	0.009250 
2193.063792  	0.010422 
2194.992608  	0.010591 
2196.921424  	0.009920 
2198.850240  	0.009978 
2200.779056  	0.010083 
2202.707872  	0.009814 
2204.636688  	0.010017 
2206.565504  	0.009872 
2208.494320  	0.010184 
2210.423136  	0.009200 
2212.351952  	0.008966 
2214.280768  	0.009293 
2216.209584  	0.008787 
2218.138400  	0.008492 
2220.067216  	0.008993 
2221.996032  	0.008681 
2223.924848  	0.007972 
2225.853664  	0.008357 
2227.782480  	0.009062 
2229.711296  	0.009476 
2231.640112  	0.009580 
2233.568928  	0.008841 
2235.497744  	0.008498 
2237.426560  	0.008506 
2239.355376  	0.008857 
2241.284192  	0.008609 
2243.213008  	0.008334 
2245.141824  	0.008418 
2247.070640  	0.008351 
2248.999456  	0.008030 
2250.928272  	0.008093 
2252.857088  	0.007932 
2254.785904  	0.007968 
2256.714720  	0.008636 
2258.643536  	0.009233 
2260.572352  	0.008643 
2262.501168  	0.008468 
2264.429984  	0.008381 
2266.358800  	0.008479 
2268.287616  	0.008506 
2270.216432  	0.008693 
2272.145248  	0.008473 
2274.074064  	0.008778 
2276.002880  	0.008885 
2277.931696  	0.009195 
2279.860512  	0.009445 
2281.789328  	0.009636 
2283.718144  	0.009516 
2285.646960  	0.009847 
2287.575776  	0.010024 
2289.504592  	0.009662 
2291.433408  	0.009319 
2293.362224  	0.009368 
2295.291040  	0.009357 
2297.219856  	0.009704 
2299.148672  	0.009751 
2301.077488  	0.009753 
2303.006304  	0.009967 
2304.935120  	0.010127 
2306.863936  	0.009936 
2308.792752  	0.009814 
2310.721568  	0.009868 
2312.650384  	0.009552 
2314.579200  	0.008685 
2316.508016  	0.008397 
2318.436832  	0.007712 
2320.365648  	0.006903 
2322.294464  	0.006297 
2324.223280  	0.005346 
2326.152096  	0.003243 
2328.080912  	0.001850 
2330.009728  	0.001088 
2331.938544  	0.000416 
2333.867360  	-0.000984 
2335.796176  	-0.001923 
2337.724992  	-0.002556 
2339.653808  	-0.002914 
2341.582624  	-0.002525 
2343.511440  	-0.000850 
2345.440256  	0.001061 
2347.369072  	0.003687 
2349.297888  	0.004329 
2351.226704  	0.002060 
2353.155520  	-0.000792 
2355.084336  	-0.003422 
2357.013152  	-0.005753 
2358.941968  	-0.007198 
2360.870784  	-0.007857 
2362.799600  	-0.006945 
2364.728416  	-0.005562 
2366.657232  	-0.003731 
2368.586048  	-0.001833 
2370.514864  	0.000736 
2372.443680  	0.003257 
2374.372496  	0.005453 
2376.301312  	0.007091 
2378.230128  	0.008594 
2380.158944  	0.009397 
2382.087760  	0.009561 
2384.016576  	0.009632 
2385.945392  	0.009717 
2387.874208  	0.009372 
2389.803024  	0.009096 
2391.731840  	0.008841 
2393.660656  	0.008729 
2395.589472  	0.008943 
2397.518288  	0.009239 
2399.447104  	0.009098 
2401.375920  	0.008953 
2403.304736  	0.009082 
2405.233552  	0.009209 
2407.162368  	0.009270 
2409.091184  	0.009224 
2411.020000  	0.009210 
2412.948816  	0.009411 
2414.877632  	0.009291 
2416.806448  	0.009455 
2418.735264  	0.009816 
2420.664080  	0.009770 
2422.592896  	0.009475 
2424.521712  	0.009444 
2426.450528  	0.009565 
2428.379344  	0.009535 
2430.308160  	0.009581 
2432.236976  	0.009636 
2434.165792  	0.009745 
2436.094608  	0.010224 
2438.023424  	0.010336 
2439.952240  	0.010399 
2441.881056  	0.010478 
2443.809872  	0.010392 
2445.738688  	0.010436 
2447.667504  	0.010583 
2449.596320  	0.010583 
2451.525136  	0.010529 
2453.453952  	0.010509 
2455.382768  	0.010877 
2457.311584  	0.011113 
2459.240400  	0.010975 
2461.169216  	0.010684 
2463.098032  	0.010662 
2465.026848  	0.010636 
2466.955664  	0.010477 
2468.884480  	0.010404 
2470.813296  	0.010481 
2472.742112  	0.010469 
2474.670928  	0.010519 
2476.599744  	0.010511 
2478.528560  	0.010624 
2480.457376  	0.010793 
2482.386192  	0.010879 
2484.315008  	0.010873 
2486.243824  	0.010937 
2488.172640  	0.010897 
2490.101456  	0.010928 
2492.030272  	0.011026 
2493.959088  	0.011101 
2495.887904  	0.011087 
2497.816720  	0.011125 
2499.745536  	0.011293 
2501.674352  	0.011535 
2503.603168  	0.011537 
2505.531984  	0.011490 
2507.460800  	0.011517 
2509.389616  	0.011518 
2511.318432  	0.011334 
2513.247248  	0.011345 
2515.176064  	0.011603 
2517.104880  	0.011987 
2519.033696  	0.012200 
2520.962512  	0.012202 
2522.891328  	0.012230 
2524.820144  	0.012199 
2526.748960  	0.012201 
2528.677776  	0.012339 
2530.606592  	0.012370 
2532.535408  	0.012423 
2534.464224  	0.012552 
2536.393040  	0.012635 
2538.321856  	0.012596 
2540.250672  	0.012702 
2542.179488  	0.012627 
2544.108304  	0.012808 
2546.037120  	0.012732 
2547.965936  	0.013025 
2549.894752  	0.013397 
2551.823568  	0.013438 
2553.752384  	0.013345 
2555.681200  	0.013448 
2557.610016  	0.013520 
2559.538832  	0.013643 
2561.467648  	0.013710 
2563.396464  	0.013854 
2565.325280  	0.014019 
2567.254096  	0.014046 
2569.182912  	0.013936 
2571.111728  	0.013744 
2573.040544  	0.013537 
2574.969360  	0.013675 
2576.898176  	0.013999 
2578.826992  	0.014443 
2580.755808  	0.014410 
2582.684624  	0.014240 
2584.613440  	0.014239 
2586.542256  	0.014479 
2588.471072  	0.014627 
2590.399888  	0.014473 
2592.328704  	0.014443 
2594.257520  	0.014658 
2596.186336  	0.014982 
2598.115152  	0.015150 
2600.043968  	0.015054 
2601.972784  	0.015117 
2603.901600  	0.015305 
2605.830416  	0.015488 
2607.759232  	0.015315 
2609.688048  	0.015323 
2611.616864  	0.015543 
2613.545680  	0.015686 
2615.474496  	0.015632 
2617.403312  	0.015780 
2619.332128  	0.016076 
2621.260944  	0.016166 
2623.189760  	0.016018 
2625.118576  	0.016078 
2627.047392  	0.016330 
2628.976208  	0.016618 
2630.905024  	0.016678 
2632.833840  	0.016781 
2634.762656  	0.016867 
2636.691472  	0.016823 
2638.620288  	0.016866 
2640.549104  	0.017049 
2642.477920  	0.017173 
2644.406736  	0.017222 
2646.335552  	0.017417 
2648.264368  	0.017603 
2650.193184  	0.017718 
2652.122000  	0.017841 
2654.050816  	0.017946 
2655.979632  	0.017986 
2657.908448  	0.018052 
2659.837264  	0.018127 
2661.766080  	0.018066 
2663.694896  	0.018100 
2665.623712  	0.018087 
2667.552528  	0.018036 
2669.481344  	0.018243 
2671.410160  	0.018521 
2673.338976  	0.018620 
2675.267792  	0.018733 
2677.196608  	0.018791 
2679.125424  	0.018825 
2681.054240  	0.018774 
2682.983056  	0.018887 
2684.911872  	0.019106 
2686.840688  	0.019235 
2688.769504  	0.019352 
2690.698320  	0.019451 
2692.627136  	0.019523 
2694.555952  	0.019594 
2696.484768  	0.019526 
2698.413584  	0.019628 
2700.342400  	0.019750 
2702.271216  	0.019919 
2704.200032  	0.020139 
2706.128848  	0.020258 
2708.057664  	0.020316 
2709.986480  	0.020403 
2711.915296  	0.020417 
2713.844112  	0.020472 
2715.772928  	0.020597 
2717.701744  	0.020763 
2719.630560  	0.020725 
2721.559376  	0.020769 
2723.488192  	0.020940 
2725.417008  	0.021154 
2727.345824  	0.021279 
2729.274640  	0.021291 
2731.203456  	0.021207 
2733.132272  	0.021304 
2735.061088  	0.021536 
2736.989904  	0.021686 
2738.918720  	0.021619 
2740.847536  	0.021469 
2742.776352  	0.021541 
2744.705168  	0.021702 
2746.633984  	0.021814 
2748.562800  	0.021951 
2750.491616  	0.022071 
2752.420432  	0.022151 
2754.349248  	0.022154 
2756.278064  	0.022033 
2758.206880  	0.021955 
2760.135696  	0.022315 
2762.064512  	0.022343 
2763.993328  	0.022217 
2765.922144  	0.022305 
2767.850960  	0.022308 
2769.779776  	0.022190 
2771.708592  	0.022284 
2773.637408  	0.022324 
2775.566224  	0.022353 
2777.495040  	0.022350 
2779.423856  	0.022389 
2781.352672  	0.022532 
2783.281488  	0.022607 
2785.210304  	0.022560 
2787.139120  	0.022655 
2789.067936  	0.022753 
2790.996752  	0.022831 
2792.925568  	0.022972 
2794.854384  	0.022975 
2796.783200  	0.022889 
2798.712016  	0.022764 
2800.640832  	0.022841 
2802.569648  	0.023057 
2804.498464  	0.023072 
2806.427280  	0.023023 
2808.356096  	0.023146 
2810.284912  	0.023340 
2812.213728  	0.023288 
2814.142544  	0.023272 
2816.071360  	0.023344 
2818.000176  	0.023184 
2819.928992  	0.022872 
2821.857808  	0.022834 
2823.786624  	0.022781 
2825.715440  	0.022711 
2827.644256  	0.022643 
2829.573072  	0.022588 
2831.501888  	0.022264 
2833.430704  	0.021961 
2835.359520  	0.021688 
2837.288336  	0.021375 
2839.217152  	0.021150 
2841.145968  	0.020961 
2843.074784  	0.020680 
2845.003600  	0.020508 
2846.932416  	0.020519 
2848.861232  	0.020398 
2850.790048  	0.019960 
2852.718864  	0.019272 
2854.647680  	0.018503 
2856.576496  	0.017807 
2858.505312  	0.017078 
2860.434128  	0.016186 
2862.362944  	0.015191 
2864.291760  	0.014300 
2866.220576  	0.013510 
2868.149392  	0.013127 
2870.078208  	0.013118 
2872.007024  	0.013113 
2873.935840  	0.013030 
2875.864656  	0.013004 
2877.793472  	0.012845 
2879.722288  	0.012436 
2881.651104  	0.011832 
2883.579920  	0.011284 
2885.508736  	0.011214 
2887.437552  	0.011418 
2889.366368  	0.011451 
2891.295184  	0.011167 
2893.224000  	0.010924 
2895.152816  	0.011030 
2897.081632  	0.010610 
2899.010448  	0.008869 
2900.939264  	0.007352 
2902.868080  	0.008742 
2904.796896  	0.010246 
2906.725712  	0.010771 
2908.654528  	0.011301 
2910.583344  	0.011903 
2912.512160  	0.013094 
2914.440976  	0.014710 
2916.369792  	0.015864 
2918.298608  	0.016471 
2920.227424  	0.016767 
2922.156240  	0.017189 
2924.085056  	0.017755 
2926.013872  	0.018475 
2927.942688  	0.019213 
2929.871504  	0.020000 
2931.800320  	0.020688 
2933.729136  	0.021138 
2935.657952  	0.021439 
2937.586768  	0.021816 
2939.515584  	0.021868 
2941.444400  	0.021746 
2943.373216  	0.021743 
2945.302032  	0.021884 
2947.230848  	0.021858 
2949.159664  	0.021319 
2951.088480  	0.020574 
2953.017296  	0.020049 
2954.946112  	0.019332 
2956.874928  	0.018339 
2958.803744  	0.017437 
2960.732560  	0.016814 
2962.661376  	0.016064 
2964.590192  	0.014921 
2966.519008  	0.013559 
2968.447824  	0.012215 
2970.376640  	0.011273 
2972.305456  	0.010670 
2974.234272  	0.010717 
2976.163088  	0.010866 
2978.091904  	0.010870 
2980.020720  	0.010870 
2981.949536  	0.010975 
2983.878352  	0.010500 
2985.807168  	0.009298 
2987.735984  	0.008467 
2989.664800  	0.009167 
2991.593616  	0.012584 
2993.522432  	0.014511 
2995.451248  	0.015006 
2997.380064  	0.015942 
2999.308880  	0.017216 
3001.237696  	0.018637 
3003.166512  	0.019958 
3005.095328  	0.021370 
3007.024144  	0.022904 
3008.952960  	0.024371 
3010.881776  	0.026001 
3012.810592  	0.027333 
3014.739408  	0.028482 
3016.668224  	0.029756 
3018.597040  	0.030842 
3020.525856  	0.031845 
3022.454672  	0.032914 
3024.383488  	0.033997 
3026.312304  	0.035037 
3028.241120  	0.035983 
3030.169936  	0.036727 
3032.098752  	0.037602 
3034.027568  	0.038139 
3035.956384  	0.038531 
3037.885200  	0.039203 
3039.814016  	0.040005 
3041.742832  	0.040655 
3043.671648  	0.040993 
3045.600464  	0.041272 
3047.529280  	0.041617 
3049.458096  	0.042085 
3051.386912  	0.042352 
3053.315728  	0.042693 
3055.244544  	0.043296 
3057.173360  	0.043888 
3059.102176  	0.044291 
3061.030992  	0.044553 
3062.959808  	0.044795 
3064.888624  	0.045199 
3066.817440  	0.045663 
3068.746256  	0.046005 
3070.675072  	0.046223 
3072.603888  	0.046645 
3074.532704  	0.047137 
3076.461520  	0.047653 
3078.390336  	0.048074 
3080.319152  	0.048427 
3082.247968  	0.048813 
3084.176784  	0.049174 
3086.105600  	0.049467 
3088.034416  	0.049852 
3089.963232  	0.050182 
3091.892048  	0.050490 
3093.820864  	0.051035 
3095.749680  	0.051599 
3097.678496  	0.051676 
3099.607312  	0.051981 
3101.536128  	0.052475 
3103.464944  	0.052805 
3105.393760  	0.053090 
3107.322576  	0.053376 
3109.251392  	0.053750 
3111.180208  	0.054123 
3113.109024  	0.054307 
3115.037840  	0.054570 
3116.966656  	0.054938 
3118.895472  	0.055159 
3120.824288  	0.055375 
3122.753104  	0.055738 
3124.681920  	0.056003 
3126.610736  	0.056142 
3128.539552  	0.056480 
3130.468368  	0.056680 
3132.397184  	0.056682 
3134.326000  	0.056818 
3136.254816  	0.057074 
3138.183632  	0.057286 
3140.112448  	0.057418 
3142.041264  	0.057659 
3143.970080  	0.057905 
3145.898896  	0.058044 
3147.827712  	0.058259 
3149.756528  	0.058635 
3151.685344  	0.059104 
3153.614160  	0.059494 
3155.542976  	0.059679 
3157.471792  	0.059886 
3159.400608  	0.060283 
3161.329424  	0.060658 
3163.258240  	0.060907 
3165.187056  	0.061122 
3167.115872  	0.061390 
3169.044688  	0.061510 
3170.973504  	0.061497 
3172.902320  	0.061689 
3174.831136  	0.062003 
3176.759952  	0.062107 
3178.688768  	0.062256 
3180.617584  	0.062459 
3182.546400  	0.062396 
3184.475216  	0.062506 
3186.404032  	0.062775 
3188.332848  	0.062836 
3190.261664  	0.062982 
3192.190480  	0.062936 
3194.119296  	0.062606 
3196.048112  	0.062605 
3197.976928  	0.062920 
3199.905744  	0.062984 
3201.834560  	0.062896 
3203.763376  	0.062957 
3205.692192  	0.062884 
3207.621008  	0.062567 
3209.549824  	0.062286 
3211.478640  	0.062041 
3213.407456  	0.061911 
3215.336272  	0.061988 
3217.265088  	0.061801 
3219.193904  	0.061466 
3221.122720  	0.061141 
3223.051536  	0.060899 
3224.980352  	0.060791 
3226.909168  	0.060613 
3228.837984  	0.060397 
3230.766800  	0.060398 
3232.695616  	0.060497 
3234.624432  	0.060424 
3236.553248  	0.060225 
3238.482064  	0.060088 
3240.410880  	0.059975 
3242.339696  	0.059867 
3244.268512  	0.059846 
3246.197328  	0.059927 
3248.126144  	0.060007 
3250.054960  	0.060087 
3251.983776  	0.059980 
3253.912592  	0.059939 
3255.841408  	0.060174 
3257.770224  	0.060438 
3259.699040  	0.060484 
3261.627856  	0.060367 
3263.556672  	0.060344 
3265.485488  	0.060471 
3267.414304  	0.060855 
3269.343120  	0.061123 
3271.271936  	0.061275 
3273.200752  	0.061393 
3275.129568  	0.061258 
3277.058384  	0.061200 
3278.987200  	0.061379 
3280.916016  	0.061433 
3282.844832  	0.061498 
3284.773648  	0.061574 
3286.702464  	0.061767 
3288.631280  	0.062006 
3290.560096  	0.062195 
3292.488912  	0.062510 
3294.417728  	0.062563 
3296.346544  	0.062671 
3298.275360  	0.062903 
3300.204176  	0.063169 
3302.132992  	0.063132 
3304.061808  	0.063261 
3305.990624  	0.063639 
3307.919440  	0.063748 
3309.848256  	0.063789 
3311.777072  	0.063991 
3313.705888  	0.064256 
3315.634704  	0.064522 
3317.563520  	0.064812 
3319.492336  	0.064921 
3321.421152  	0.064863 
3323.349968  	0.064856 
3325.278784  	0.065132 
3327.207600  	0.065305 
3329.136416  	0.065206 
3331.065232  	0.065046 
3332.994048  	0.065164 
3334.922864  	0.065229 
3336.851680  	0.065068 
3338.780496  	0.064934 
3340.709312  	0.064757 
3342.638128  	0.064702 
3344.566944  	0.064589 
3346.495760  	0.064310 
3348.424576  	0.064132 
3350.353392  	0.063954 
3352.282208  	0.063607 
3354.211024  	0.063549 
3356.139840  	0.063534 
3358.068656  	0.063089 
3359.997472  	0.062731 
3361.926288  	0.062410 
3363.855104  	0.061970 
3365.783920  	0.061736 
3367.712736  	0.061602 
3369.641552  	0.061138 
3371.570368  	0.060719 
3373.499184  	0.060526 
3375.428000  	0.060169 
3377.356816  	0.059783 
3379.285632  	0.059412 
3381.214448  	0.059190 
3383.143264  	0.059034 
3385.072080  	0.058807 
3387.000896  	0.058394 
3388.929712  	0.058150 
3390.858528  	0.057994 
3392.787344  	0.057718 
3394.716160  	0.057161 
3396.644976  	0.056839 
3398.573792  	0.056485 
3400.502608  	0.056175 
3402.431424  	0.055833 
3404.360240  	0.055339 
3406.289056  	0.054953 
3408.217872  	0.054627 
3410.146688  	0.054222 
3412.075504  	0.054135 
3414.004320  	0.053929 
3415.933136  	0.053370 
3417.861952  	0.052953 
3419.790768  	0.052855 
3421.719584  	0.052570 
3423.648400  	0.051940 
3425.577216  	0.051548 
3427.506032  	0.051463 
3429.434848  	0.050993 
3431.363664  	0.050593 
3433.292480  	0.050219 
3435.221296  	0.049874 
3437.150112  	0.049688 
3439.078928  	0.049377 
3441.007744  	0.048905 
3442.936560  	0.048638 
3444.865376  	0.048243 
3446.794192  	0.047730 
3448.723008  	0.047373 
3450.651824  	0.046801 
3452.580640  	0.046167 
3454.509456  	0.045609 
3456.438272  	0.045235 
3458.367088  	0.045079 
3460.295904  	0.044863 
3462.224720  	0.044401 
3464.153536  	0.043657 
3466.082352  	0.043141 
3468.011168  	0.042726 
3469.939984  	0.042164 
3471.868800  	0.041605 
3473.797616  	0.041212 
3475.726432  	0.040724 
3477.655248  	0.040270 
3479.584064  	0.039998 
3481.512880  	0.039902 
3483.441696  	0.039330 
3485.370512  	0.038411 
3487.299328  	0.037995 
3489.228144  	0.037709 
3491.156960  	0.037046 
3493.085776  	0.036518 
3495.014592  	0.036128 
3496.943408  	0.035765 
3498.872224  	0.035264 
3500.801040  	0.035188 
3502.729856  	0.035185 
3504.658672  	0.034425 
3506.587488  	0.033389 
3508.516304  	0.033185 
3510.445120  	0.033239 
3512.373936  	0.032780 
3514.302752  	0.032228 
3516.231568  	0.031691 
3518.160384  	0.031268 
3520.089200  	0.031071 
3522.018016  	0.031182 
3523.946832  	0.031307 
3525.875648  	0.030810 
3527.804464  	0.030215 
3529.733280  	0.029621 
3531.662096  	0.028849 
3533.590912  	0.028293 
3535.519728  	0.028426 
3537.448544  	0.028260 
3539.377360  	0.027447 
3541.306176  	0.027057 
3543.234992  	0.027152 
3545.163808  	0.027628 
3547.092624  	0.027222 
3549.021440  	0.025625 
3550.950256  	0.024965 
3552.879072  	0.025486 
3554.807888  	0.025058 
3556.736704  	0.024201 
3558.665520  	0.024081 
3560.594336  	0.024118 
3562.523152  	0.023461 
3564.451968  	0.023511 
3566.380784  	0.024800 
3568.309600  	0.024728 
3570.238416  	0.022678 
3572.167232  	0.021279 
3574.096048  	0.020710 
3576.024864  	0.020219 
3577.953680  	0.019946 
3579.882496  	0.019716 
3581.811312  	0.019239 
3583.740128  	0.018615 
3585.668944  	0.018643 
3587.597760  	0.019846 
3589.526576  	0.018981 
3591.455392  	0.016997 
3593.384208  	0.016686 
3595.313024  	0.016729 
3597.241840  	0.015837 
3599.170656  	0.014800 
3601.099472  	0.014375 
3603.028288  	0.013999 
3604.957104  	0.013275 
3606.885920  	0.013111 
3608.814736  	0.013497 
3610.743552  	0.012565 
3612.672368  	0.011930 
3614.601184  	0.011697 
3616.530000  	0.010324 
3618.458816  	0.009765 
3620.387632  	0.009816 
3622.316448  	0.008589 
3624.245264  	0.007484 
3626.174080  	0.006682 
3628.102896  	0.006637 
3630.031712  	0.007675 
3631.960528  	0.006297 
3633.889344  	0.005031 
3635.818160  	0.003913 
3637.746976  	0.003106 
3639.675792  	0.002889 
3641.604608  	0.002515 
3643.533424  	0.001581 
3645.462240  	0.000232 
3647.391056  	-0.000248 
3649.319872  	-0.000446 
3651.248688  	-0.000046 
3653.177504  	-0.001432 
3655.106320  	-0.003409 
3657.035136  	-0.003846 
3658.963952  	-0.004543 
3660.892768  	-0.005336 
3662.821584  	-0.005831 
3664.750400  	-0.006129 
3666.679216  	-0.006840 
3668.608032  	-0.007659 
3670.536848  	-0.006937 
3672.465664  	-0.006984 
3674.394480  	-0.008683 
3676.323296  	-0.007211 
3678.252112  	-0.005671 
3680.180928  	-0.005506 
3682.109744  	-0.006239 
3684.038560  	-0.007025 
3685.967376  	-0.007706 
3687.896192  	-0.008186 
3689.825008  	-0.007219 
3691.753824  	-0.006341 
3693.682640  	-0.006071 
3695.611456  	-0.006092 
3697.540272  	-0.005732 
3699.469088  	-0.005518 
3701.397904  	-0.004499 
3703.326720  	-0.003500 
3705.255536  	-0.003667 
3707.184352  	-0.004186 
3709.113168  	-0.004184 
3711.041984  	-0.003048 
3712.970800  	-0.001525 
3714.899616  	-0.001438 
3716.828432  	-0.002405 
3718.757248  	-0.002861 
3720.686064  	-0.002833 
3722.614880  	-0.001912 
3724.543696  	-0.001299 
3726.472512  	-0.000979 
3728.401328  	-0.001955 
3730.330144  	-0.003745 
3732.258960  	-0.003798 
3734.187776  	-0.001635 
3736.116592  	0.000458 
3738.045408  	-0.000891 
3739.974224  	-0.002177 
3741.903040  	-0.002604 
3743.831856  	-0.002050 
3745.760672  	-0.000348 
3747.689488  	-0.002338 
3749.618304  	-0.003579 
3751.547120  	-0.002586 
3753.475936  	-0.000923 
3755.404752  	-0.001533 
3757.333568  	-0.002062 
3759.262384  	-0.001754 
3761.191200  	-0.001235 
3763.120016  	-0.001698 
3765.048832  	-0.001780 
3766.977648  	-0.001700 
3768.906464  	-0.002154 
3770.835280  	-0.001404 
3772.764096  	-0.001339 
3774.692912  	-0.001902 
3776.621728  	-0.002481 
3778.550544  	-0.002519 
3780.479360  	-0.001749 
3782.408176  	-0.002023 
3784.336992  	-0.002346 
3786.265808  	-0.002140 
3788.194624  	-0.002211 
3790.123440  	-0.002372 
3792.052256  	-0.002328 
3793.981072  	-0.002543 
3795.909888  	-0.002532 
3797.838704  	-0.002143 
3799.767520  	-0.003369 
3801.696336  	-0.002909 
3803.625152  	-0.002121 
3805.553968  	-0.003293 
3807.482784  	-0.002478 
3809.411600  	-0.001744 
3811.340416  	-0.001998 
3813.269232  	-0.002648 
3815.198048  	-0.003320 
3817.126864  	-0.002374 
3819.055680  	-0.003094 
3820.984496  	-0.002777 
3822.913312  	-0.001237 
3824.842128  	-0.002030 
3826.770944  	-0.002324 
3828.699760  	-0.002395 
3830.628576  	-0.002921 
3832.557392  	-0.002714 
3834.486208  	-0.003033 
3836.415024  	-0.003419 
3838.343840  	-0.002360 
3840.272656  	-0.001527 
3842.201472  	-0.001918 
3844.130288  	-0.002019 
3846.059104  	-0.002092 
3847.987920  	-0.002538 
3849.916736  	-0.003090 
3851.845552  	-0.003871 
3853.774368  	-0.001681 
3855.703184  	-0.000539 
3857.632000  	-0.001458 
3859.560816  	-0.002370 
3861.489632  	-0.002562 
3863.418448  	-0.002179 
3865.347264  	-0.001645 
3867.276080  	-0.002274 
3869.204896  	-0.002221 
3871.133712  	-0.000572 
3873.062528  	-0.001399 
3874.991344  	-0.001360 
3876.920160  	-0.002055 
3878.848976  	-0.002437 
3880.777792  	-0.001082 
3882.706608  	-0.001054 
3884.635424  	-0.001603 
3886.564240  	-0.000758 
3888.493056  	-0.001820 
3890.421872  	-0.002140 
3892.350688  	-0.001057 
3894.279504  	-0.001390 
3896.208320  	-0.002108 
3898.137136  	-0.001962 
3900.065952  	-0.001173 
3901.994768  	-0.000664 
3903.923584  	-0.000148 
3905.852400  	-0.000248 
3907.781216  	-0.001502 
3909.710032  	-0.002303 
3911.638848  	-0.002361 
3913.567664  	-0.002229 
3915.496480  	-0.001644 
3917.425296  	-0.000641 
3919.354112  	-0.000827 
3921.282928  	-0.001266 
3923.211744  	-0.001477 
3925.140560  	-0.001147 
3927.069376  	-0.001617 
3928.998192  	-0.002022 
3930.927008  	-0.001142 
3932.855824  	-0.000457 
3934.784640  	-0.001247 
3936.713456  	-0.001597 
3938.642272  	-0.001478 
3940.571088  	-0.001632 
3942.499904  	-0.000910 
3944.428720  	-0.000846 
3946.357536  	-0.001405 
3948.286352  	-0.001074 
3950.215168  	-0.001231 
3952.143984  	-0.001863 
3954.072800  	-0.002205 
3956.001616  	-0.002205 
3957.930432  	-0.001977 
3959.859248  	-0.001775 
3961.788064  	-0.001677 
3963.716880  	-0.001789 
3965.645696  	-0.002103 
3967.574512  	-0.001990 
3969.503328  	-0.001901 
3971.432144  	-0.002006 
3973.360960  	-0.002061 
3975.289776  	-0.001813 
3977.218592  	-0.001793 
3979.147408  	-0.001883 
3981.076224  	-0.001978 
3983.005040  	-0.002097 
3984.933856  	-0.002050 
3986.862672  	-0.002087 
3988.791488  	-0.002142 
3990.720304  	-0.001934 
3992.649120  	-0.001971 
3994.577936  	-0.002038 
3996.506752  	-0.002177 
3998.435568  	-0.002143 
4000.364384  	-0.002061 