##TITLE=No Description
##DATA TYPE=INFRARED SPECTRUM
##XUNITS=1/CM
##YUNITS=Abs
399.264912  	0.591967 
401.193728  	0.590407 
403.122544  	0.585946 
405.051360  	0.573950 
406.980176  	0.571811 
408.908992  	0.553480 
410.837808  	0.552623 
412.766624  	0.561247 
414.695440  	0.563761 
416.624256  	0.552656 
418.553072  	0.551967 
420.481888  	0.546853 
422.410704  	0.544823 
424.339520  	0.532686 
426.268336  	0.538996 
428.197152  	0.537531 
430.125968  	0.528425 
432.054784  	0.519892 
433.983600  	0.524073 
435.912416  	0.520592 
437.841232  	0.519515 
439.770048  	0.517895 
441.698864  	0.515521 
443.627680  	0.511883 
445.556496  	0.510037 
447.485312  	0.506607 
449.414128  	0.507368 
451.342944  	0.504564 
453.271760  	0.506812 
455.200576  	0.504270 
457.129392  	0.502726 
459.058208  	0.499945 
460.987024  	0.502615 
462.915840  	0.501920 
464.844656  	0.506468 
466.773472  	0.503014 
468.702288  	0.500014 
470.631104  	0.498852 
472.559920  	0.500289 
474.488736  	0.495768 
476.417552  	0.495102 
478.346368  	0.496571 
480.275184  	0.504715 
482.204000  	0.506293 
484.132816  	0.502050 
486.061632  	0.493712 
487.990448  	0.495740 
489.919264  	0.496987 
491.848080  	0.495705 
493.776896  	0.494875 
495.705712  	0.495438 
497.634528  	0.490305 
499.563344  	0.491402 
501.492160  	0.490339 
503.420976  	0.487881 
505.349792  	0.486636 
507.278608  	0.485408 
509.207424  	0.481702 
511.136240  	0.481654 
513.065056  	0.482511 
514.993872  	0.484301 
516.922688  	0.484745 
518.851504  	0.485506 
520.780320  	0.482992 
522.709136  	0.484087 
524.637952  	0.481612 
526.566768  	0.480699 
528.495584  	0.480903 
530.424400  	0.479298 
532.353216  	0.476691 
534.282032  	0.472970 
536.210848  	0.466617 
538.139664  	0.463819 
540.068480  	0.459557 
541.997296  	0.455385 
543.926112  	0.451456 
545.854928  	0.449852 
547.783744  	0.446344 
549.712560  	0.442179 
551.641376  	0.437898 
553.570192  	0.435222 
555.499008  	0.431955 
557.427824  	0.428718 
559.356640  	0.424585 
561.285456  	0.422390 
563.214272  	0.418637 
565.143088  	0.415990 
567.071904  	0.412400 
569.000720  	0.408960 
570.929536  	0.404313 
572.858352  	0.401319 
574.787168  	0.399459 
576.715984  	0.395741 
578.644800  	0.390584 
580.573616  	0.387699 
582.502432  	0.384374 
584.431248  	0.381992 
586.360064  	0.379740 
588.288880  	0.377114 
590.217696  	0.373560 
592.146512  	0.372115 
594.075328  	0.370727 
596.004144  	0.368775 
597.932960  	0.366469 
599.861776  	0.365450 
601.790592  	0.364828 
603.719408  	0.364067 
605.648224  	0.362234 
607.577040  	0.361193 
609.505856  	0.360510 
611.434672  	0.359213 
613.363488  	0.356785 
615.292304  	0.355121 
617.221120  	0.353618 
619.149936  	0.351620 
621.078752  	0.348725 
623.007568  	0.347085 
624.936384  	0.345977 
626.865200  	0.345066 
628.794016  	0.343505 
630.722832  	0.342049 
632.651648  	0.340904 
634.580464  	0.340428 
636.509280  	0.340692 
638.438096  	0.340980 
640.366912  	0.340341 
642.295728  	0.339176 
644.224544  	0.336635 
646.153360  	0.334361 
648.082176  	0.331674 
650.010992  	0.328776 
651.939808  	0.325077 
653.868624  	0.321387 
655.797440  	0.317549 
657.726256  	0.314523 
659.655072  	0.310888 
661.583888  	0.307138 
663.512704  	0.303599 
665.441520  	0.301306 
667.370336  	0.299290 
669.299152  	0.294760 
671.227968  	0.290856 
673.156784  	0.288436 
675.085600  	0.286169 
677.014416  	0.284161 
678.943232  	0.282379 
680.872048  	0.280881 
682.800864  	0.278989 
684.729680  	0.277662 
686.658496  	0.275752 
688.587312  	0.273346 
690.516128  	0.271216 
692.444944  	0.269360 
694.373760  	0.267599 
696.302576  	0.266045 
698.231392  	0.263794 
700.160208  	0.261018 
702.089024  	0.258308 
704.017840  	0.256823 
705.946656  	0.254275 
707.875472  	0.251373 
709.804288  	0.249400 
711.733104  	0.248237 
713.661920  	0.246666 
715.590736  	0.245643 
717.519552  	0.245173 
719.448368  	0.245937 
721.377184  	0.246656 
723.306000  	0.247039 
725.234816  	0.247207 
727.163632  	0.246157 
729.092448  	0.243769 
731.021264  	0.241248 
732.950080  	0.238226 
734.878896  	0.235232 
736.807712  	0.232869 
738.736528  	0.231022 
740.665344  	0.229240 
742.594160  	0.227956 
744.522976  	0.226770 
746.451792  	0.225683 
748.380608  	0.224316 
750.309424  	0.223519 
752.238240  	0.223104 
754.167056  	0.222833 
756.095872  	0.221976 
758.024688  	0.220998 
759.953504  	0.220212 
761.882320  	0.220031 
763.811136  	0.220376 
765.739952  	0.220015 
767.668768  	0.218577 
769.597584  	0.217092 
771.526400  	0.216775 
773.455216  	0.218350 
775.384032  	0.220700 
777.312848  	0.224325 
779.241664  	0.228102 
781.170480  	0.229176 
783.099296  	0.226502 
785.028112  	0.221518 
786.956928  	0.215757 
788.885744  	0.210708 
790.814560  	0.207133 
792.743376  	0.205134 
794.672192  	0.203443 
796.601008  	0.202576 
798.529824  	0.200988 
800.458640  	0.197703 
802.387456  	0.194238 
804.316272  	0.192835 
806.245088  	0.192285 
808.173904  	0.191690 
810.102720  	0.191250 
812.031536  	0.191135 
813.960352  	0.190988 
815.889168  	0.190971 
817.817984  	0.191063 
819.746800  	0.190889 
821.675616  	0.190586 
823.604432  	0.190206 
825.533248  	0.189228 
827.462064  	0.187956 
829.390880  	0.186828 
831.319696  	0.185883 
833.248512  	0.184617 
835.177328  	0.182723 
837.106144  	0.180275 
839.034960  	0.177349 
840.963776  	0.174422 
842.892592  	0.171827 
844.821408  	0.169208 
846.750224  	0.166758 
848.679040  	0.164760 
850.607856  	0.162889 
852.536672  	0.161355 
854.465488  	0.160045 
856.394304  	0.158907 
858.323120  	0.157837 
860.251936  	0.156577 
862.180752  	0.154923 
864.109568  	0.153367 
866.038384  	0.152280 
867.967200  	0.150845 
869.896016  	0.149158 
871.824832  	0.147872 
873.753648  	0.147097 
875.682464  	0.146963 
877.611280  	0.147530 
879.540096  	0.148363 
881.468912  	0.148855 
883.397728  	0.149128 
885.326544  	0.149240 
887.255360  	0.149163 
889.184176  	0.148825 
891.112992  	0.148048 
893.041808  	0.146463 
894.970624  	0.144269 
896.899440  	0.141698 
898.828256  	0.138298 
900.757072  	0.134854 
902.685888  	0.132033 
904.614704  	0.130117 
906.543520  	0.129471 
908.472336  	0.130342 
910.401152  	0.132120 
912.329968  	0.134527 
914.258784  	0.137145 
916.187600  	0.139465 
918.116416  	0.141200 
920.045232  	0.141902 
921.974048  	0.141490 
923.902864  	0.140634 
925.831680  	0.139572 
927.760496  	0.138386 
929.689312  	0.137368 
931.618128  	0.137208 
933.546944  	0.137392 
935.475760  	0.137379 
937.404576  	0.137426 
939.333392  	0.138043 
941.262208  	0.139352 
943.191024  	0.141592 
945.119840  	0.145072 
947.048656  	0.149626 
948.977472  	0.155390 
950.906288  	0.162097 
952.835104  	0.169331 
954.763920  	0.176490 
956.692736  	0.183144 
958.621552  	0.188861 
960.550368  	0.192607 
962.479184  	0.194032 
964.408000  	0.192614 
966.336816  	0.188777 
968.265632  	0.182492 
970.194448  	0.174484 
972.123264  	0.165183 
974.052080  	0.155428 
975.980896  	0.145991 
977.909712  	0.137266 
979.838528  	0.129917 
981.767344  	0.123976 
983.696160  	0.119767 
985.624976  	0.117738 
987.553792  	0.118072 
989.482608  	0.120384 
991.411424  	0.124343 
993.340240  	0.129706 
995.269056  	0.136433 
997.197872  	0.143693 
999.126688  	0.150715 
1001.055504  	0.157875 
1002.984320  	0.164812 
1004.913136  	0.171514 
1006.841952  	0.177589 
1008.770768  	0.182843 
1010.699584  	0.187110 
1012.628400  	0.190277 
1014.557216  	0.192426 
1016.486032  	0.193936 
1018.414848  	0.194924 
1020.343664  	0.195786 
1022.272480  	0.196402 
1024.201296  	0.197287 
1026.130112  	0.198786 
1028.058928  	0.200221 
1029.987744  	0.200768 
1031.916560  	0.202908 
1033.845376  	0.206425 
1035.774192  	0.210785 
1037.703008  	0.215649 
1039.631824  	0.221571 
1041.560640  	0.229178 
1043.489456  	0.239039 
1045.418272  	0.250527 
1047.347088  	0.263918 
1049.275904  	0.277940 
1051.204720  	0.291457 
1053.133536  	0.302310 
1055.062352  	0.310854 
1056.991168  	0.316075 
1058.919984  	0.318169 
1060.848800  	0.317859 
1062.777616  	0.317734 
1064.706432  	0.316301 
1066.635248  	0.313148 
1068.564064  	0.306864 
1070.492880  	0.300600 
1072.421696  	0.294782 
1074.350512  	0.289965 
1076.279328  	0.285737 
1078.208144  	0.282458 
1080.136960  	0.279066 
1082.065776  	0.275854 
1083.994592  	0.272384 
1085.923408  	0.268698 
1087.852224  	0.264030 
1089.781040  	0.258942 
1091.709856  	0.251650 
1093.638672  	0.243271 
1095.567488  	0.234285 
1097.496304  	0.225277 
1099.425120  	0.215494 
1101.353936  	0.205198 
1103.282752  	0.194348 
1105.211568  	0.183603 
1107.140384  	0.173058 
1109.069200  	0.162882 
1110.998016  	0.153084 
1112.926832  	0.143871 
1114.855648  	0.135124 
1116.784464  	0.126755 
1118.713280  	0.119137 
1120.642096  	0.112294 
1122.570912  	0.105800 
1124.499728  	0.099866 
1126.428544  	0.094450 
1128.357360  	0.089426 
1130.286176  	0.084588 
1132.214992  	0.080768 
1134.143808  	0.077542 
1136.072624  	0.074309 
1138.001440  	0.071263 
1139.930256  	0.068279 
1141.859072  	0.065768 
1143.787888  	0.063490 
1145.716704  	0.061455 
1147.645520  	0.059677 
1149.574336  	0.058379 
1151.503152  	0.057470 
1153.431968  	0.057302 
1155.360784  	0.057400 
1157.289600  	0.057746 
1159.218416  	0.058584 
1161.147232  	0.059823 
1163.076048  	0.060976 
1165.004864  	0.062446 
1166.933680  	0.064131 
1168.862496  	0.066068 
1170.791312  	0.068266 
1172.720128  	0.070478 
1174.648944  	0.072574 
1176.577760  	0.075049 
1178.506576  	0.077562 
1180.435392  	0.079961 
1182.364208  	0.082334 
1184.293024  	0.084930 
1186.221840  	0.087697 
1188.150656  	0.090849 
1190.079472  	0.094354 
1192.008288  	0.098662 
1193.937104  	0.103707 
1195.865920  	0.109379 
1197.794736  	0.115290 
1199.723552  	0.121838 
1201.652368  	0.129028 
1203.581184  	0.136267 
1205.510000  	0.143358 
1207.438816  	0.150465 
1209.367632  	0.157293 
1211.296448  	0.163675 
1213.225264  	0.169689 
1215.154080  	0.174917 
1217.082896  	0.179269 
1219.011712  	0.182664 
1220.940528  	0.185813 
1222.869344  	0.188037 
1224.798160  	0.189882 
1226.726976  	0.191174 
1228.655792  	0.191786 
1230.584608  	0.191545 
1232.513424  	0.190535 
1234.442240  	0.188293 
1236.371056  	0.185297 
1238.299872  	0.181586 
1240.228688  	0.177745 
1242.157504  	0.172446 
1244.086320  	0.166057 
1246.015136  	0.159638 
1247.943952  	0.153512 
1249.872768  	0.146953 
1251.801584  	0.140176 
1253.730400  	0.133472 
1255.659216  	0.127092 
1257.588032  	0.120914 
1259.516848  	0.114852 
1261.445664  	0.109071 
1263.374480  	0.103870 
1265.303296  	0.099309 
1267.232112  	0.095274 
1269.160928  	0.092011 
1271.089744  	0.089814 
1273.018560  	0.088691 
1274.947376  	0.088201 
1276.876192  	0.087692 
1278.805008  	0.086761 
1280.733824  	0.085161 
1282.662640  	0.082571 
1284.591456  	0.079187 
1286.520272  	0.075650 
1288.449088  	0.072859 
1290.377904  	0.070799 
1292.306720  	0.069181 
1294.235536  	0.067245 
1296.164352  	0.064494 
1298.093168  	0.061258 
1300.021984  	0.057995 
1301.950800  	0.054835 
1303.879616  	0.052126 
1305.808432  	0.049867 
1307.737248  	0.048024 
1309.666064  	0.046373 
1311.594880  	0.045216 
1313.523696  	0.044417 
1315.452512  	0.044126 
1317.381328  	0.044296 
1319.310144  	0.044786 
1321.238960  	0.045602 
1323.167776  	0.046587 
1325.096592  	0.047190 
1327.025408  	0.047421 
1328.954224  	0.047031 
1330.883040  	0.046334 
1332.811856  	0.045389 
1334.740672  	0.044555 
1336.669488  	0.043535 
1338.598304  	0.042622 
1340.527120  	0.042187 
1342.455936  	0.042182 
1344.384752  	0.042276 
1346.313568  	0.042947 
1348.242384  	0.044057 
1350.171200  	0.045644 
1352.100016  	0.047464 
1354.028832  	0.049415 
1355.957648  	0.051574 
1357.886464  	0.053767 
1359.815280  	0.055397 
1361.744096  	0.056776 
1363.672912  	0.058871 
1365.601728  	0.060713 
1367.530544  	0.061651 
1369.459360  	0.062291 
1371.388176  	0.062191 
1373.316992  	0.061189 
1375.245808  	0.060075 
1377.174624  	0.058988 
1379.103440  	0.057368 
1381.032256  	0.055839 
1382.961072  	0.054488 
1384.889888  	0.053241 
1386.818704  	0.051552 
1388.747520  	0.050255 
1390.676336  	0.049599 
1392.605152  	0.049469 
1394.533968  	0.048647 
1396.462784  	0.047479 
1398.391600  	0.047285 
1400.320416  	0.048621 
1402.249232  	0.049892 
1404.178048  	0.051052 
1406.106864  	0.052620 
1408.035680  	0.054188 
1409.964496  	0.055460 
1411.893312  	0.056875 
1413.822128  	0.058177 
1415.750944  	0.058988 
1417.679760  	0.058688 
1419.608576  	0.058275 
1421.537392  	0.058098 
1423.466208  	0.057011 
1425.395024  	0.055690 
1427.323840  	0.054173 
1429.252656  	0.052079 
1431.181472  	0.050759 
1433.110288  	0.050341 
1435.039104  	0.049979 
1436.967920  	0.050134 
1438.896736  	0.051413 
1440.825552  	0.052110 
1442.754368  	0.052743 
1444.683184  	0.052817 
1446.612000  	0.052528 
1448.540816  	0.052828 
1450.469632  	0.053499 
1452.398448  	0.053506 
1454.327264  	0.053129 
1456.256080  	0.051652 
1458.184896  	0.051712 
1460.113712  	0.053089 
1462.042528  	0.053829 
1463.971344  	0.053799 
1465.900160  	0.055469 
1467.828976  	0.057784 
1469.757792  	0.059905 
1471.686608  	0.061919 
1473.615424  	0.066395 
1475.544240  	0.070151 
1477.473056  	0.073582 
1479.401872  	0.075376 
1481.330688  	0.076076 
1483.259504  	0.076364 
1485.188320  	0.075657 
1487.117136  	0.073711 
1489.045952  	0.071512 
1490.974768  	0.069068 
1492.903584  	0.066859 
1494.832400  	0.063337 
1496.761216  	0.058946 
1498.690032  	0.055369 
1500.618848  	0.052947 
1502.547664  	0.050684 
1504.476480  	0.047763 
1506.405296  	0.043581 
1508.334112  	0.042989 
1510.262928  	0.043298 
1512.191744  	0.042836 
1514.120560  	0.041883 
1516.049376  	0.041113 
1517.978192  	0.041764 
1519.907008  	0.042456 
1521.835824  	0.044376 
1523.764640  	0.047784 
1525.693456  	0.050252 
1527.622272  	0.052692 
1529.551088  	0.054290 
1531.479904  	0.054252 
1533.408720  	0.052918 
1535.337536  	0.052280 
1537.266352  	0.050356 
1539.195168  	0.046250 
1541.123984  	0.043521 
1543.052800  	0.043290 
1544.981616  	0.042647 
1546.910432  	0.042419 
1548.839248  	0.041520 
1550.768064  	0.041398 
1552.696880  	0.041525 
1554.625696  	0.041828 
1556.554512  	0.041356 
1558.483328  	0.040370 
1560.412144  	0.045305 
1562.340960  	0.049149 
1564.269776  	0.051385 
1566.198592  	0.054918 
1568.127408  	0.057632 
1570.056224  	0.062388 
1571.985040  	0.067162 
1573.913856  	0.069370 
1575.842672  	0.070381 
1577.771488  	0.072716 
1579.700304  	0.073281 
1581.629120  	0.073169 
1583.557936  	0.073274 
1585.486752  	0.074659 
1587.415568  	0.077043 
1589.344384  	0.080900 
1591.273200  	0.085541 
1593.202016  	0.090943 
1595.130832  	0.096125 
1597.059648  	0.101473 
1598.988464  	0.105558 
1600.917280  	0.108769 
1602.846096  	0.110586 
1604.774912  	0.111805 
1606.703728  	0.111561 
1608.632544  	0.111121 
1610.561360  	0.110186 
1612.490176  	0.109889 
1614.418992  	0.109306 
1616.347808  	0.110005 
1618.276624  	0.113325 
1620.205440  	0.117063 
1622.134256  	0.120423 
1624.063072  	0.127158 
1625.991888  	0.133473 
1627.920704  	0.140324 
1629.849520  	0.148233 
1631.778336  	0.155278 
1633.707152  	0.160029 
1635.635968  	0.166375 
1637.564784  	0.174355 
1639.493600  	0.179463 
1641.422416  	0.183100 
1643.351232  	0.185617 
1645.280048  	0.185736 
1647.208864  	0.186319 
1649.137680  	0.187651 
1651.066496  	0.186677 
1652.995312  	0.182777 
1654.924128  	0.183539 
1656.852944  	0.183066 
1658.781760  	0.181403 
1660.710576  	0.178920 
1662.639392  	0.176281 
1664.568208  	0.174755 
1666.497024  	0.173212 
1668.425840  	0.170261 
1670.354656  	0.168124 
1672.283472  	0.167291 
1674.212288  	0.166006 
1676.141104  	0.165340 
1678.069920  	0.165552 
1679.998736  	0.164871 
1681.927552  	0.164183 
1683.856368  	0.162815 
1685.785184  	0.164907 
1687.714000  	0.164881 
1689.642816  	0.163622 
1691.571632  	0.161987 
1693.500448  	0.159677 
1695.429264  	0.155323 
1697.358080  	0.151928 
1699.286896  	0.148165 
1701.215712  	0.143741 
1703.144528  	0.141204 
1705.073344  	0.136447 
1707.002160  	0.131427 
1708.930976  	0.127059 
1710.859792  	0.121857 
1712.788608  	0.115782 
1714.717424  	0.109059 
1716.646240  	0.101543 
1718.575056  	0.094182 
1720.503872  	0.088597 
1722.432688  	0.082803 
1724.361504  	0.075988 
1726.290320  	0.070150 
1728.219136  	0.064275 
1730.147952  	0.058578 
1732.076768  	0.053318 
1734.005584  	0.047570 
1735.934400  	0.043044 
1737.863216  	0.040005 
1739.792032  	0.035471 
1741.720848  	0.032402 
1743.649664  	0.029202 
1745.578480  	0.026592 
1747.507296  	0.023705 
1749.436112  	0.021793 
1751.364928  	0.020553 
1753.293744  	0.020151 
1755.222560  	0.018730 
1757.151376  	0.017513 
1759.080192  	0.016712 
1761.009008  	0.016086 
1762.937824  	0.015560 
1764.866640  	0.015679 
1766.795456  	0.014771 
1768.724272  	0.014195 
1770.653088  	0.012942 
1772.581904  	0.012409 
1774.510720  	0.012887 
1776.439536  	0.013170 
1778.368352  	0.012986 
1780.297168  	0.012927 
1782.225984  	0.012700 
1784.154800  	0.012525 
1786.083616  	0.012436 
1788.012432  	0.012386 
1789.941248  	0.011458 
1791.870064  	0.010956 
1793.798880  	0.011189 
1795.727696  	0.011595 
1797.656512  	0.011182 
1799.585328  	0.010785 
1801.514144  	0.010573 
1803.442960  	0.010799 
1805.371776  	0.010599 
1807.300592  	0.010502 
1809.229408  	0.009981 
1811.158224  	0.010024 
1813.087040  	0.010135 
1815.015856  	0.010061 
1816.944672  	0.009778 
1818.873488  	0.010273 
1820.802304  	0.010307 
1822.731120  	0.010160 
1824.659936  	0.009633 
1826.588752  	0.009808 
1828.517568  	0.009330 
1830.446384  	0.009704 
1832.375200  	0.010178 
1834.304016  	0.010069 
1836.232832  	0.009671 
1838.161648  	0.010036 
1840.090464  	0.010081 
1842.019280  	0.009621 
1843.948096  	0.008768 
1845.876912  	0.009289 
1847.805728  	0.009591 
1849.734544  	0.009981 
1851.663360  	0.009873 
1853.592176  	0.009948 
1855.520992  	0.009824 
1857.449808  	0.010125 
1859.378624  	0.010042 
1861.307440  	0.009943 
1863.236256  	0.009617 
1865.165072  	0.009632 
1867.093888  	0.009423 
1869.022704  	0.009410 
1870.951520  	0.009192 
1872.880336  	0.009721 
1874.809152  	0.009823 
1876.737968  	0.010063 
1878.666784  	0.009529 
1880.595600  	0.009440 
1882.524416  	0.009554 
1884.453232  	0.009685 
1886.382048  	0.009306 
1888.310864  	0.009290 
1890.239680  	0.009704 
1892.168496  	0.010128 
1894.097312  	0.009362 
1896.026128  	0.009490 
1897.954944  	0.009625 
1899.883760  	0.009696 
1901.812576  	0.009456 
1903.741392  	0.009589 
1905.670208  	0.009417 
1907.599024  	0.009368 
1909.527840  	0.008952 
1911.456656  	0.009480 
1913.385472  	0.009723 
1915.314288  	0.010172 
1917.243104  	0.009594 
1919.171920  	0.009510 
1921.100736  	0.009868 
1923.029552  	0.010294 
1924.958368  	0.009904 
1926.887184  	0.009854 
1928.816000  	0.009469 
1930.744816  	0.009512 
1932.673632  	0.009244 
1934.602448  	0.009641 
1936.531264  	0.009524 
1938.460080  	0.009402 
1940.388896  	0.008835 
1942.317712  	0.008414 
1944.246528  	0.008409 
1946.175344  	0.009613 
1948.104160  	0.009108 
1950.032976  	0.008925 
1951.961792  	0.009368 
1953.890608  	0.010099 
1955.819424  	0.009207 
1957.748240  	0.008907 
1959.677056  	0.008832 
1961.605872  	0.008480 
1963.534688  	0.008067 
1965.463504  	0.009728 
1967.392320  	0.009536 
1969.321136  	0.009396 
1971.249952  	0.009943 
1973.178768  	0.011653 
1975.107584  	0.009786 
1977.036400  	0.008676 
1978.965216  	0.010418 
1980.894032  	0.011527 
1982.822848  	0.009858 
1984.751664  	0.009869 
1986.680480  	0.009281 
1988.609296  	0.008943 
1990.538112  	0.009215 
1992.466928  	0.010049 
1994.395744  	0.009215 
1996.324560  	0.009634 
1998.253376  	0.009177 
2000.182192  	0.009059 
2002.111008  	0.009733 
2004.039824  	0.010342 
2005.968640  	0.009295 
2007.897456  	0.009938 
2009.826272  	0.009548 
2011.755088  	0.008905 
2013.683904  	0.009977 
2015.612720  	0.011009 
2017.541536  	0.009562 
2019.470352  	0.009897 
2021.399168  	0.009863 
2023.327984  	0.010380 
2025.256800  	0.010153 
2027.185616  	0.009986 
2029.114432  	0.009507 
2031.043248  	0.010719 
2032.972064  	0.010011 
2034.900880  	0.010907 
2036.829696  	0.011400 
2038.758512  	0.011285 
2040.687328  	0.010020 
2042.616144  	0.009052 
2044.544960  	0.009144 
2046.473776  	0.010254 
2048.402592  	0.010881 
2050.331408  	0.011709 
2052.260224  	0.010176 
2054.189040  	0.009817 
2056.117856  	0.009463 
2058.046672  	0.009684 
2059.975488  	0.009271 
2061.904304  	0.009262 
2063.833120  	0.010220 
2065.761936  	0.010929 
2067.690752  	0.010108 
2069.619568  	0.009679 
2071.548384  	0.008730 
2073.477200  	0.009138 
2075.406016  	0.010089 
2077.334832  	0.010488 
2079.263648  	0.009666 
2081.192464  	0.009609 
2083.121280  	0.010049 
2085.050096  	0.009895 
2086.978912  	0.009487 
2088.907728  	0.009730 
2090.836544  	0.009284 
2092.765360  	0.009156 
2094.694176  	0.009256 
2096.622992  	0.009523 
2098.551808  	0.009467 
2100.480624  	0.009795 
2102.409440  	0.009854 
2104.338256  	0.010288 
2106.267072  	0.010556 
2108.195888  	0.010613 
2110.124704  	0.010851 
2112.053520  	0.010839 
2113.982336  	0.010254 
2115.911152  	0.010414 
2117.839968  	0.010216 
2119.768784  	0.009729 
2121.697600  	0.009406 
2123.626416  	0.009279 
2125.555232  	0.009090 
2127.484048  	0.009115 
2129.412864  	0.008568 
2131.341680  	0.007778 
2133.270496  	0.007930 
2135.199312  	0.008955 
2137.128128  	0.008669 
2139.056944  	0.008638 
2140.985760  	0.008150 
2142.914576  	0.009097 
2144.843392  	0.008919 
2146.772208  	0.008886 
2148.701024  	0.009041 
2150.629840  	0.008852 
2152.558656  	0.007901 
2154.487472  	0.007771 
2156.416288  	0.006749 
2158.345104  	0.009742 
2160.273920  	0.012882 
2162.202736  	0.012958 
2164.131552  	0.011976 
2166.060368  	0.012247 
2167.989184  	0.010576 
2169.918000  	0.010781 
2171.846816  	0.010853 
2173.775632  	0.011001 
2175.704448  	0.011693 
2177.633264  	0.012218 
2179.562080  	0.011567 
2181.490896  	0.010430 
2183.419712  	0.009099 
2185.348528  	0.009958 
2187.277344  	0.010306 
2189.206160  	0.010458 
2191.134976  	0.010551 
2193.063792  	0.011563 
2194.992608  	0.011963 
2196.921424  	0.011236 
2198.850240  	0.011166 
2200.779056  	0.011378 
2202.707872  	0.011210 
2204.636688  	0.011375 
2206.565504  	0.011290 
2208.494320  	0.011964 
2210.423136  	0.010404 
2212.351952  	0.010174 
2214.280768  	0.010885 
2216.209584  	0.010529 
2218.138400  	0.010148 
2220.067216  	0.010747 
2221.996032  	0.011311 
2223.924848  	0.010697 
2225.853664  	0.010424 
2227.782480  	0.011258 
2229.711296  	0.011268 
2231.640112  	0.010736 
2233.568928  	0.010090 
2235.497744  	0.010320 
2237.426560  	0.010389 
2239.355376  	0.010373 
2241.284192  	0.010180 
2243.213008  	0.010550 
2245.141824  	0.010750 
2247.070640  	0.010274 
2248.999456  	0.009971 
2250.928272  	0.010511 
2252.857088  	0.010377 
2254.785904  	0.010195 
2256.714720  	0.010879 
2258.643536  	0.011750 
2260.572352  	0.011372 
2262.501168  	0.011488 
2264.429984  	0.011873 
2266.358800  	0.012133 
2268.287616  	0.011883 
2270.216432  	0.011927 
2272.145248  	0.011543 
2274.074064  	0.011413 
2276.002880  	0.011493 
2277.931696  	0.012117 
2279.860512  	0.012391 
2281.789328  	0.012171 
2283.718144  	0.012021 
2285.646960  	0.012526 
2287.575776  	0.012887 
2289.504592  	0.012586 
2291.433408  	0.012321 
2293.362224  	0.012712 
2295.291040  	0.013010 
2297.219856  	0.013305 
2299.148672  	0.013462 
2301.077488  	0.013708 
2303.006304  	0.014057 
2304.935120  	0.014385 
2306.863936  	0.014613 
2308.792752  	0.015052 
2310.721568  	0.015706 
2312.650384  	0.016099 
2314.579200  	0.016228 
2316.508016  	0.016797 
2318.436832  	0.017372 
2320.365648  	0.018181 
2322.294464  	0.018860 
2324.223280  	0.019028 
2326.152096  	0.018508 
2328.080912  	0.018443 
2330.009728  	0.018525 
2331.938544  	0.018502 
2333.867360  	0.018114 
2335.796176  	0.018329 
2337.724992  	0.018642 
2339.653808  	0.018890 
2341.582624  	0.019268 
2343.511440  	0.019737 
2345.440256  	0.019311 
2347.369072  	0.017932 
2349.297888  	0.017416 
2351.226704  	0.018210 
2353.155520  	0.019225 
2355.084336  	0.020317 
2357.013152  	0.021173 
2358.941968  	0.021415 
2360.870784  	0.021259 
2362.799600  	0.021578 
2364.728416  	0.021276 
2366.657232  	0.020423 
2368.586048  	0.019139 
2370.514864  	0.018221 
2372.443680  	0.017074 
2374.372496  	0.016495 
2376.301312  	0.016048 
2378.230128  	0.015425 
2380.158944  	0.014362 
2382.087760  	0.013161 
2384.016576  	0.012462 
2385.945392  	0.012297 
2387.874208  	0.011947 
2389.803024  	0.011764 
2391.731840  	0.011642 
2393.660656  	0.011621 
2395.589472  	0.011771 
2397.518288  	0.011861 
2399.447104  	0.011728 
2401.375920  	0.011595 
2403.304736  	0.011682 
2405.233552  	0.011878 
2407.162368  	0.011999 
2409.091184  	0.011940 
2411.020000  	0.011983 
2412.948816  	0.012223 
2414.877632  	0.012123 
2416.806448  	0.012151 
2418.735264  	0.012315 
2420.664080  	0.012389 
2422.592896  	0.012161 
2424.521712  	0.012151 
2426.450528  	0.012360 
2428.379344  	0.012403 
2430.308160  	0.012472 
2432.236976  	0.012827 
2434.165792  	0.012980 
2436.094608  	0.013206 
2438.023424  	0.013334 
2439.952240  	0.013446 
2441.881056  	0.013500 
2443.809872  	0.013339 
2445.738688  	0.013133 
2447.667504  	0.013229 
2449.596320  	0.013274 
2451.525136  	0.013367 
2453.453952  	0.013360 
2455.382768  	0.013652 
2457.311584  	0.013898 
2459.240400  	0.013876 
2461.169216  	0.013683 
2463.098032  	0.013614 
2465.026848  	0.013539 
2466.955664  	0.013630 
2468.884480  	0.013644 
2470.813296  	0.013774 
2472.742112  	0.013705 
2474.670928  	0.013685 
2476.599744  	0.013718 
2478.528560  	0.013856 
2480.457376  	0.014114 
2482.386192  	0.014103 
2484.315008  	0.014036 
2486.243824  	0.014162 
2488.172640  	0.014046 
2490.101456  	0.014054 
2492.030272  	0.014292 
2493.959088  	0.014406 
2495.887904  	0.014387 
2497.816720  	0.014479 
2499.745536  	0.014456 
2501.674352  	0.014737 
2503.603168  	0.014830 
2505.531984  	0.014882 
2507.460800  	0.014959 
2509.389616  	0.015082 
2511.318432  	0.014863 
2513.247248  	0.014943 
2515.176064  	0.015139 
2517.104880  	0.015355 
2519.033696  	0.015608 
2520.962512  	0.015747 
2522.891328  	0.015883 
2524.820144  	0.015892 
2526.748960  	0.015783 
2528.677776  	0.015989 
2530.606592  	0.015928 
2532.535408  	0.015806 
2534.464224  	0.015929 
2536.393040  	0.016033 
2538.321856  	0.015960 
2540.250672  	0.016167 
2542.179488  	0.016313 
2544.108304  	0.016330 
2546.037120  	0.016297 
2547.965936  	0.016658 
2549.894752  	0.016841 
2551.823568  	0.016786 
2553.752384  	0.016804 
2555.681200  	0.016820 
2557.610016  	0.016914 
2559.538832  	0.017071 
2561.467648  	0.017146 
2563.396464  	0.017416 
2565.325280  	0.017570 
2567.254096  	0.017585 
2569.182912  	0.017336 
2571.111728  	0.017256 
2573.040544  	0.017193 
2574.969360  	0.017320 
2576.898176  	0.017692 
2578.826992  	0.017871 
2580.755808  	0.017649 
2582.684624  	0.017591 
2584.613440  	0.017787 
2586.542256  	0.018181 
2588.471072  	0.018278 
2590.399888  	0.018174 
2592.328704  	0.018256 
2594.257520  	0.018432 
2596.186336  	0.018714 
2598.115152  	0.018821 
2600.043968  	0.018783 
2601.972784  	0.018948 
2603.901600  	0.019053 
2605.830416  	0.019167 
2607.759232  	0.019110 
2609.688048  	0.019283 
2611.616864  	0.019416 
2613.545680  	0.019568 
2615.474496  	0.019735 
2617.403312  	0.019678 
2619.332128  	0.019835 
2621.260944  	0.020021 
2623.189760  	0.020054 
2625.118576  	0.020233 
2627.047392  	0.020393 
2628.976208  	0.020582 
2630.905024  	0.020667 
2632.833840  	0.020891 
2634.762656  	0.021096 
2636.691472  	0.021051 
2638.620288  	0.021045 
2640.549104  	0.021196 
2642.477920  	0.021301 
2644.406736  	0.021350 
2646.335552  	0.021577 
2648.264368  	0.021865 
2650.193184  	0.022012 
2652.122000  	0.022143 
2654.050816  	0.022259 
2655.979632  	0.022334 
2657.908448  	0.022360 
2659.837264  	0.022391 
2661.766080  	0.022399 
2663.694896  	0.022511 
2665.623712  	0.022544 
2667.552528  	0.022531 
2669.481344  	0.022703 
2671.410160  	0.022983 
2673.338976  	0.023073 
2675.267792  	0.023121 
2677.196608  	0.023234 
2679.125424  	0.023434 
2681.054240  	0.023424 
2682.983056  	0.023443 
2684.911872  	0.023707 
2686.840688  	0.023893 
2688.769504  	0.024065 
2690.698320  	0.024174 
2692.627136  	0.024177 
2694.555952  	0.024208 
2696.484768  	0.024225 
2698.413584  	0.024436 
2700.342400  	0.024506 
2702.271216  	0.024691 
2704.200032  	0.025042 
2706.128848  	0.025204 
2708.057664  	0.025241 
2709.986480  	0.025316 
2711.915296  	0.025434 
2713.844112  	0.025576 
2715.772928  	0.025772 
2717.701744  	0.026029 
2719.630560  	0.026128 
2721.559376  	0.026170 
2723.488192  	0.026267 
2725.417008  	0.026509 
2727.345824  	0.026689 
2729.274640  	0.026732 
2731.203456  	0.026728 
2733.132272  	0.026894 
2735.061088  	0.027110 
2736.989904  	0.027286 
2738.918720  	0.027443 
2740.847536  	0.027525 
2742.776352  	0.027655 
2744.705168  	0.027751 
2746.633984  	0.027798 
2748.562800  	0.027948 
2750.491616  	0.028068 
2752.420432  	0.028160 
2754.349248  	0.028242 
2756.278064  	0.028406 
2758.206880  	0.028469 
2760.135696  	0.028611 
2762.064512  	0.028646 
2763.993328  	0.028674 
2765.922144  	0.028760 
2767.850960  	0.028783 
2769.779776  	0.028850 
2771.708592  	0.028990 
2773.637408  	0.028995 
2775.566224  	0.029073 
2777.495040  	0.029108 
2779.423856  	0.029136 
2781.352672  	0.029260 
2783.281488  	0.029396 
2785.210304  	0.029518 
2787.139120  	0.029648 
2789.067936  	0.029765 
2790.996752  	0.029882 
2792.925568  	0.030107 
2794.854384  	0.030288 
2796.783200  	0.030271 
2798.712016  	0.030215 
2800.640832  	0.030293 
2802.569648  	0.030516 
2804.498464  	0.030670 
2806.427280  	0.030703 
2808.356096  	0.030778 
2810.284912  	0.031029 
2812.213728  	0.031098 
2814.142544  	0.031174 
2816.071360  	0.031324 
2818.000176  	0.031353 
2819.928992  	0.031389 
2821.857808  	0.031570 
2823.786624  	0.031709 
2825.715440  	0.031719 
2827.644256  	0.031732 
2829.573072  	0.031784 
2831.501888  	0.031795 
2833.430704  	0.031838 
2835.359520  	0.031876 
2837.288336  	0.031953 
2839.217152  	0.032212 
2841.145968  	0.032325 
2843.074784  	0.032298 
2845.003600  	0.032584 
2846.932416  	0.033006 
2848.861232  	0.033266 
2850.790048  	0.033508 
2852.718864  	0.033729 
2854.647680  	0.033880 
2856.576496  	0.034149 
2858.505312  	0.034343 
2860.434128  	0.034660 
2862.362944  	0.035034 
2864.291760  	0.035287 
2866.220576  	0.035602 
2868.149392  	0.036223 
2870.078208  	0.036838 
2872.007024  	0.037403 
2873.935840  	0.037934 
2875.864656  	0.038593 
2877.793472  	0.039404 
2879.722288  	0.040201 
2881.651104  	0.040938 
2883.579920  	0.041533 
2885.508736  	0.041864 
2887.437552  	0.042095 
2889.366368  	0.042282 
2891.295184  	0.042570 
2893.224000  	0.042859 
2895.152816  	0.042985 
2897.081632  	0.042932 
2899.010448  	0.043414 
2900.939264  	0.044132 
2902.868080  	0.044009 
2904.796896  	0.043871 
2906.725712  	0.043853 
2908.654528  	0.043980 
2910.583344  	0.044363 
2912.512160  	0.044880 
2914.440976  	0.045297 
2916.369792  	0.045583 
2918.298608  	0.046053 
2920.227424  	0.046594 
2922.156240  	0.047078 
2924.085056  	0.047425 
2926.013872  	0.047948 
2927.942688  	0.048514 
2929.871504  	0.048983 
2931.800320  	0.049396 
2933.729136  	0.049811 
2935.657952  	0.050185 
2937.586768  	0.050643 
2939.515584  	0.050957 
2941.444400  	0.051206 
2943.373216  	0.051559 
2945.302032  	0.051917 
2947.230848  	0.052000 
2949.159664  	0.051992 
2951.088480  	0.052180 
2953.017296  	0.052466 
2954.946112  	0.052473 
2956.874928  	0.052601 
2958.803744  	0.052608 
2960.732560  	0.052516 
2962.661376  	0.052600 
2964.590192  	0.052608 
2966.519008  	0.052736 
2968.447824  	0.052850 
2970.376640  	0.052766 
2972.305456  	0.052659 
2974.234272  	0.052200 
2976.163088  	0.051780 
2978.091904  	0.051536 
2980.020720  	0.051415 
2981.949536  	0.051425 
2983.878352  	0.051367 
2985.807168  	0.051556 
2987.735984  	0.051888 
2989.664800  	0.051560 
2991.593616  	0.050636 
2993.522432  	0.050082 
2995.451248  	0.049931 
2997.380064  	0.049989 
2999.308880  	0.049856 
3001.237696  	0.049550 
3003.166512  	0.049181 
3005.095328  	0.048964 
3007.024144  	0.048860 
3008.952960  	0.048616 
3010.881776  	0.048418 
3012.810592  	0.048216 
3014.739408  	0.048017 
3016.668224  	0.048035 
3018.597040  	0.047872 
3020.525856  	0.047547 
3022.454672  	0.047416 
3024.383488  	0.047502 
3026.312304  	0.047565 
3028.241120  	0.047525 
3030.169936  	0.047466 
3032.098752  	0.047698 
3034.027568  	0.047570 
3035.956384  	0.047345 
3037.885200  	0.047438 
3039.814016  	0.047764 
3041.742832  	0.048151 
3043.671648  	0.048209 
3045.600464  	0.048365 
3047.529280  	0.048629 
3049.458096  	0.048854 
3051.386912  	0.048864 
3053.315728  	0.049182 
3055.244544  	0.049644 
3057.173360  	0.050201 
3059.102176  	0.050566 
3061.030992  	0.050735 
3062.959808  	0.051072 
3064.888624  	0.051601 
3066.817440  	0.052102 
3068.746256  	0.052423 
3070.675072  	0.052675 
3072.603888  	0.053124 
3074.532704  	0.053860 
3076.461520  	0.054490 
3078.390336  	0.054631 
3080.319152  	0.054776 
3082.247968  	0.055263 
3084.176784  	0.055881 
3086.105600  	0.056127 
3088.034416  	0.056366 
3089.963232  	0.056815 
3091.892048  	0.057421 
3093.820864  	0.057853 
3095.749680  	0.058104 
3097.678496  	0.058381 
3099.607312  	0.058883 
3101.536128  	0.059235 
3103.464944  	0.059772 
3105.393760  	0.060224 
3107.322576  	0.060452 
3109.251392  	0.060817 
3111.180208  	0.061186 
3113.109024  	0.061534 
3115.037840  	0.061836 
3116.966656  	0.062104 
3118.895472  	0.062453 
3120.824288  	0.062678 
3122.753104  	0.062942 
3124.681920  	0.063298 
3126.610736  	0.063574 
3128.539552  	0.063732 
3130.468368  	0.063982 
3132.397184  	0.064322 
3134.326000  	0.064632 
3136.254816  	0.064795 
3138.183632  	0.065015 
3140.112448  	0.065308 
3142.041264  	0.065625 
3143.970080  	0.065999 
3145.898896  	0.066236 
3147.827712  	0.066497 
3149.756528  	0.066859 
3151.685344  	0.067214 
3153.614160  	0.067595 
3155.542976  	0.067873 
3157.471792  	0.068075 
3159.400608  	0.068557 
3161.329424  	0.068988 
3163.258240  	0.069223 
3165.187056  	0.069517 
3167.115872  	0.069858 
3169.044688  	0.070182 
3170.973504  	0.070467 
3172.902320  	0.070654 
3174.831136  	0.070897 
3176.759952  	0.071133 
3178.688768  	0.071214 
3180.617584  	0.071192 
3182.546400  	0.071176 
3184.475216  	0.071496 
3186.404032  	0.071795 
3188.332848  	0.071852 
3190.261664  	0.072001 
3192.190480  	0.072122 
3194.119296  	0.071891 
3196.048112  	0.071798 
3197.976928  	0.071972 
3199.905744  	0.072121 
3201.834560  	0.072130 
3203.763376  	0.072054 
3205.692192  	0.071989 
3207.621008  	0.071957 
3209.549824  	0.071751 
3211.478640  	0.071471 
3213.407456  	0.071253 
3215.336272  	0.071309 
3217.265088  	0.071203 
3219.193904  	0.071020 
3221.122720  	0.070729 
3223.051536  	0.070536 
3224.980352  	0.070365 
3226.909168  	0.070106 
3228.837984  	0.069745 
3230.766800  	0.069647 
3232.695616  	0.069685 
3234.624432  	0.069587 
3236.553248  	0.069377 
3238.482064  	0.069397 
3240.410880  	0.069488 
3242.339696  	0.069422 
3244.268512  	0.069245 
3246.197328  	0.069333 
3248.126144  	0.069403 
3250.054960  	0.069373 
3251.983776  	0.069200 
3253.912592  	0.069159 
3255.841408  	0.069277 
3257.770224  	0.069468 
3259.699040  	0.069571 
3261.627856  	0.069666 
3263.556672  	0.069850 
3265.485488  	0.069888 
3267.414304  	0.070025 
3269.343120  	0.070243 
3271.271936  	0.070418 
3273.200752  	0.070596 
3275.129568  	0.070697 
3277.058384  	0.070699 
3278.987200  	0.070720 
3280.916016  	0.070896 
3282.844832  	0.071006 
3284.773648  	0.071098 
3286.702464  	0.071272 
3288.631280  	0.071500 
3290.560096  	0.071709 
3292.488912  	0.071839 
3294.417728  	0.071804 
3296.346544  	0.071962 
3298.275360  	0.072319 
3300.204176  	0.072594 
3302.132992  	0.072755 
3304.061808  	0.072901 
3305.990624  	0.073235 
3307.919440  	0.073484 
3309.848256  	0.073625 
3311.777072  	0.073599 
3313.705888  	0.073752 
3315.634704  	0.074265 
3317.563520  	0.074591 
3319.492336  	0.074672 
3321.421152  	0.074721 
3323.349968  	0.074792 
3325.278784  	0.075010 
3327.207600  	0.075243 
3329.136416  	0.075369 
3331.065232  	0.075294 
3332.994048  	0.075315 
3334.922864  	0.075238 
3336.851680  	0.075037 
3338.780496  	0.075107 
3340.709312  	0.075138 
3342.638128  	0.074965 
3344.566944  	0.074729 
3346.495760  	0.074431 
3348.424576  	0.074234 
3350.353392  	0.074065 
3352.282208  	0.073901 
3354.211024  	0.073847 
3356.139840  	0.073732 
3358.068656  	0.073275 
3359.997472  	0.072867 
3361.926288  	0.072671 
3363.855104  	0.072210 
3365.783920  	0.071830 
3367.712736  	0.071802 
3369.641552  	0.071548 
3371.570368  	0.071055 
3373.499184  	0.070679 
3375.428000  	0.070372 
3377.356816  	0.070146 
3379.285632  	0.069863 
3381.214448  	0.069562 
3383.143264  	0.069387 
3385.072080  	0.069242 
3387.000896  	0.068852 
3388.929712  	0.068562 
3390.858528  	0.068195 
3392.787344  	0.067675 
3394.716160  	0.067222 
3396.644976  	0.066836 
3398.573792  	0.066533 
3400.502608  	0.066081 
3402.431424  	0.065680 
3404.360240  	0.065342 
3406.289056  	0.064998 
3408.217872  	0.064738 
3410.146688  	0.064565 
3412.075504  	0.064522 
3414.004320  	0.064255 
3415.933136  	0.063780 
3417.861952  	0.063202 
3419.790768  	0.062634 
3421.719584  	0.062189 
3423.648400  	0.061855 
3425.577216  	0.061775 
3427.506032  	0.061609 
3429.434848  	0.061046 
3431.363664  	0.060503 
3433.292480  	0.060255 
3435.221296  	0.060022 
3437.150112  	0.059550 
3439.078928  	0.059206 
3441.007744  	0.058815 
3442.936560  	0.058453 
3444.865376  	0.057849 
3446.794192  	0.056961 
3448.723008  	0.056736 
3450.651824  	0.056560 
3452.580640  	0.055980 
3454.509456  	0.055371 
3456.438272  	0.054920 
3458.367088  	0.054550 
3460.295904  	0.054123 
3462.224720  	0.053667 
3464.153536  	0.053146 
3466.082352  	0.052761 
3468.011168  	0.052296 
3469.939984  	0.051896 
3471.868800  	0.051434 
3473.797616  	0.050820 
3475.726432  	0.050168 
3477.655248  	0.049611 
3479.584064  	0.049096 
3481.512880  	0.048433 
3483.441696  	0.047704 
3485.370512  	0.047026 
3487.299328  	0.046483 
3489.228144  	0.046193 
3491.156960  	0.045654 
3493.085776  	0.045264 
3495.014592  	0.044812 
3496.943408  	0.044288 
3498.872224  	0.043688 
3500.801040  	0.043044 
3502.729856  	0.042435 
3504.658672  	0.042122 
3506.587488  	0.041655 
3508.516304  	0.041075 
3510.445120  	0.040788 
3512.373936  	0.040627 
3514.302752  	0.040138 
3516.231568  	0.039574 
3518.160384  	0.039150 
3520.089200  	0.038896 
3522.018016  	0.038370 
3523.946832  	0.037865 
3525.875648  	0.037371 
3527.804464  	0.036902 
3529.733280  	0.036666 
3531.662096  	0.036333 
3533.590912  	0.036047 
3535.519728  	0.035720 
3537.448544  	0.035538 
3539.377360  	0.035237 
3541.306176  	0.034681 
3543.234992  	0.033924 
3545.163808  	0.033429 
3547.092624  	0.033134 
3549.021440  	0.032679 
3550.950256  	0.032067 
3552.879072  	0.031913 
3554.807888  	0.031975 
3556.736704  	0.031733 
3558.665520  	0.031366 
3560.594336  	0.030964 
3562.523152  	0.030388 
3564.451968  	0.029495 
3566.380784  	0.028256 
3568.309600  	0.028202 
3570.238416  	0.028574 
3572.167232  	0.028131 
3574.096048  	0.027615 
3576.024864  	0.027301 
3577.953680  	0.026891 
3579.882496  	0.026607 
3581.811312  	0.026319 
3583.740128  	0.025750 
3585.668944  	0.024705 
3587.597760  	0.024177 
3589.526576  	0.024453 
3591.455392  	0.023598 
3593.384208  	0.022665 
3595.313024  	0.022407 
3597.241840  	0.022276 
3599.170656  	0.021771 
3601.099472  	0.021468 
3603.028288  	0.021176 
3604.957104  	0.020391 
3606.885920  	0.019097 
3608.814736  	0.018676 
3610.743552  	0.018368 
3612.672368  	0.017392 
3614.601184  	0.016984 
3616.530000  	0.016406 
3618.458816  	0.015674 
3620.387632  	0.015851 
3622.316448  	0.015986 
3624.245264  	0.015600 
3626.174080  	0.014463 
3628.102896  	0.012753 
3630.031712  	0.013231 
3631.960528  	0.013750 
3633.889344  	0.013083 
3635.818160  	0.012590 
3637.746976  	0.012252 
3639.675792  	0.012103 
3641.604608  	0.011793 
3643.533424  	0.011221 
3645.462240  	0.010010 
3647.391056  	0.008488 
3649.319872  	0.007849 
3651.248688  	0.009161 
3653.177504  	0.009880 
3655.106320  	0.008968 
3657.035136  	0.008890 
3658.963952  	0.009306 
3660.892768  	0.008930 
3662.821584  	0.008578 
3664.750400  	0.008240 
3666.679216  	0.007462 
3668.608032  	0.005992 
3670.536848  	0.005783 
3672.465664  	0.006459 
3674.394480  	0.005132 
3676.323296  	0.005319 
3678.252112  	0.006173 
3680.180928  	0.006357 
3682.109744  	0.006637 
3684.038560  	0.006576 
3685.967376  	0.005766 
3687.896192  	0.004210 
3689.825008  	0.004043 
3691.753824  	0.005087 
3693.682640  	0.005683 
3695.611456  	0.005553 
3697.540272  	0.005262 
3699.469088  	0.004705 
3701.397904  	0.004419 
3703.326720  	0.004738 
3705.255536  	0.004742 
3707.184352  	0.004006 
3709.113168  	0.002902 
3711.041984  	0.002282 
3712.970800  	0.003007 
3714.899616  	0.003791 
3716.828432  	0.003871 
3718.757248  	0.003546 
3720.686064  	0.003423 
3722.614880  	0.003762 
3724.543696  	0.003959 
3726.472512  	0.003946 
3728.401328  	0.003989 
3730.330144  	0.003054 
3732.258960  	0.001947 
3734.187776  	0.001466 
3736.116592  	0.002050 
3738.045408  	0.002834 
3739.974224  	0.002675 
3741.903040  	0.002071 
3743.831856  	0.001591 
3745.760672  	0.002420 
3747.689488  	0.001720 
3749.618304  	0.000596 
3751.547120  	0.001108 
3753.475936  	0.002887 
3755.404752  	0.003075 
3757.333568  	0.002427 
3759.262384  	0.002316 
3761.191200  	0.003126 
3763.120016  	0.003473 
3765.048832  	0.003022 
3766.977648  	0.003053 
3768.906464  	0.002762 
3770.835280  	0.003206 
3772.764096  	0.003791 
3774.692912  	0.003783 
3776.621728  	0.003261 
3778.550544  	0.002655 
3780.479360  	0.002826 
3782.408176  	0.003177 
3784.336992  	0.002963 
3786.265808  	0.003007 
3788.194624  	0.003386 
3790.123440  	0.003583 
3792.052256  	0.003468 
3793.981072  	0.003126 
3795.909888  	0.002664 
3797.838704  	0.002631 
3799.767520  	0.001933 
3801.696336  	0.001721 
3803.625152  	0.002736 
3805.553968  	0.002326 
3807.482784  	0.002538 
3809.411600  	0.003542 
3811.340416  	0.003806 
3813.269232  	0.003494 
3815.198048  	0.002236 
3817.126864  	0.002163 
3819.055680  	0.001839 
3820.984496  	0.001532 
3822.913312  	0.003022 
3824.842128  	0.003041 
3826.770944  	0.002676 
3828.699760  	0.002966 
3830.628576  	0.002674 
3832.557392  	0.002563 
3834.486208  	0.002219 
3836.415024  	0.001696 
3838.343840  	0.001713 
3840.272656  	0.002027 
3842.201472  	0.002464 
3844.130288  	0.002751 
3846.059104  	0.003233 
3847.987920  	0.003288 
3849.916736  	0.002584 
3851.845552  	0.001018 
3853.774368  	0.001367 
3855.703184  	0.003012 
3857.632000  	0.003095 
3859.560816  	0.003005 
3861.489632  	0.002587 
3863.418448  	0.002367 
3865.347264  	0.002614 
3867.276080  	0.002714 
3869.204896  	0.002055 
3871.133712  	0.002910 
3873.062528  	0.002937 
3874.991344  	0.003154 
3876.920160  	0.003440 
3878.848976  	0.002801 
3880.777792  	0.002781 
3882.706608  	0.003266 
3884.635424  	0.002942 
3886.564240  	0.003315 
3888.493056  	0.003432 
3890.421872  	0.002867 
3892.350688  	0.003124 
3894.279504  	0.003507 
3896.208320  	0.003495 
3898.137136  	0.003004 
3900.065952  	0.002461 
3901.994768  	0.002359 
3903.923584  	0.002867 
3905.852400  	0.003661 
3907.781216  	0.003815 
3909.710032  	0.003636 
3911.638848  	0.003521 
3913.567664  	0.003668 
3915.496480  	0.003558 
3917.425296  	0.003761 
3919.354112  	0.003796 
3921.282928  	0.003752 
3923.211744  	0.003646 
3925.140560  	0.003595 
3927.069376  	0.003602 
3928.998192  	0.003313 
3930.927008  	0.003342 
3932.855824  	0.003680 
3934.784640  	0.003890 
3936.713456  	0.004004 
3938.642272  	0.003949 
3940.571088  	0.003559 
3942.499904  	0.003368 
3944.428720  	0.003718 
3946.357536  	0.003667 
3948.286352  	0.003589 
3950.215168  	0.003641 
3952.143984  	0.003543 
3954.072800  	0.003554 
3956.001616  	0.003641 
3957.930432  	0.003853 
3959.859248  	0.003995 
3961.788064  	0.003972 
3963.716880  	0.004025 
3965.645696  	0.004086 
3967.574512  	0.004094 
3969.503328  	0.003922 
3971.432144  	0.003820 
3973.360960  	0.003758 
3975.289776  	0.003803 
3977.218592  	0.003923 
3979.147408  	0.004090 
3981.076224  	0.003965 
3983.005040  	0.003893 
3984.933856  	0.003989 
3986.862672  	0.004099 
3988.791488  	0.004035 
3990.720304  	0.004000 
3992.649120  	0.004150 
3994.577936  	0.004121 
3996.506752  	0.004074 
3998.435568  	0.004169 
4000.364384  	0.004149 